Name: Greywacke Sandstone
Type:  Rocks
Class:  Sedimentary
Subclass:  Sandstone
Particle Size:  0-75 Micrometers
Sample No.:  greywacke.1
Owner:  JHU
Wavelength Range:  All
Origin:  Sample No. 454, The Hunt and Salisbury Collection at the U.S. 
Geological Survey, Denver, Co.
Description:  Sample is a clean, medium fine-grained graywacke; no 
lithoclasts are present. Sample is compacted, with concomitant 
pressure solution effects in quartz grains (some bent plagioclase as 
well). Biotite and irregular masses of actinolite occur primarily 
between grain sutures of the tectosilicates. Sodic plagioclase, 
microcline occur in small amounts; scattered opaques are abundant.
Measurement:  Directional (10 degree) Hemispherical Reflectance
First Column:  X
Second Column:  Y  
X Units:  Wavelength (micrometers)
Y Units:  Reflectance (percent)
First X Value:  14.0112
Last X Value:  0.4
Number of X Values:  2843
Additional Information:  None 

14.983	2.5237
14.940	3.6000
14.897	3.9300
14.854	2.8087
14.812	3.1387
14.770	3.3150
14.728	3.5175
14.686	3.7725
14.645	3.1350
14.603	2.6812
14.562	2.4375
14.521	2.4694
14.481	2.1244
14.441	1.8544
14.400	1.8075
14.361	1.6481
14.321	1.7437
14.281	2.2959
14.242	2.6109
14.203	2.6597
14.164	2.9147
14.126	2.9175
14.087	2.8537
14.049	2.9634
14.011	3.1884
13.973	3.2109
13.936	3.1509
13.899	3.2480
13.861	3.3173
13.824	3.3225
13.788	3.3905
13.751	3.4992
13.715	3.5250
13.679	3.4322
13.643	3.5798
13.607	3.6103
13.571	3.5419
13.536	3.5105
13.500	3.5348
13.465	3.6253
13.430	3.5691
13.396	3.5137
13.361	3.4687
13.327	3.3717
13.293	3.2672
13.259	3.3030
13.225	3.2927
13.191	3.1371
13.158	3.0759
13.124	3.1015
13.091	3.0994
13.058	3.0056
13.026	2.8090
12.993	2.6934
12.960	2.7169
12.928	2.8022
12.896	2.8387
12.864	2.9384
12.832	2.9189
12.800	2.8793
12.769	2.8259
12.737	2.6899
12.706	2.5275
12.675	2.4375
12.644	2.3564
12.614	2.3890
12.583	2.5212
12.552	2.6709
12.522	2.7426
12.492	2.7825
12.462	2.8012
12.432	2.7947
12.402	2.7227
12.373	2.6072
12.343	2.5397
12.314	2.6093
12.285	2.7801
12.256	3.0066
12.227	3.3014
12.198	3.5965
12.169	3.8798
12.141	4.1883
12.113	4.5000
12.084	4.7505
12.056	4.9415
12.028	5.1621
12.000	5.3770
11.973	5.5558
11.945	5.6327
11.918	5.7586
11.890	5.8983
11.863	6.0237
11.836	6.0726
11.809	6.1022
11.782	6.1083
11.755	6.1176
11.729	6.1394
11.702	6.1465
11.676	6.1294
11.650	6.1730
11.624	6.1922
11.598	6.1617
11.572	6.1352
11.546	6.1577
11.520	6.1701
11.495	6.1486
11.469	6.1181
11.444	6.1399
11.419	6.1355
11.394	6.1343
11.369	6.0980
11.344	6.0628
11.319	5.9913
11.294	5.8739
11.270	5.7933
11.245	5.7246
11.221	5.6072
11.197	5.4572
11.173	5.3292
11.149	5.2167
11.125	5.0998
11.101	5.0536
11.077	4.9612
11.054	4.8096
11.030	4.7308
11.007	4.7503
10.983	4.7161
10.960	4.6195
10.937	4.5801
10.914	4.5459
10.891	4.5384
10.868	4.5096
10.846	4.4653
10.823	4.4524
10.800	4.4681
10.778	4.4091
10.755	4.3626
10.733	4.3720
10.711	4.3289
10.689	4.2741
10.667	4.2508
10.645	4.2555
10.623	4.2002
10.602	4.1897
10.580	4.2129
10.558	4.1983
10.537	4.2033
10.516	4.1939
10.494	4.1294
10.473	4.1262
10.452	4.1709
10.431	4.1843
10.410	4.1578
10.389	4.1667
10.368	4.1339
10.348	4.1105
10.327	4.1686
10.306	4.1674
10.286	4.1916
10.266	4.2321
10.245	4.2473
10.225	4.2851
10.205	4.2823
10.185	4.2787
10.165	4.3392
10.145	4.3877
10.125	4.4051
10.106	4.4409
10.086	4.5075
10.066	4.5021
10.047	4.4683
10.027	4.5227
10.008	4.6291
9.9887	4.7011
9.9695	4.7203
9.9504	4.7327
9.9313	4.8075
9.9123	4.8940
9.8934	4.8820
9.8746	4.8942
9.8558	4.8757
9.8371	4.8593
9.8185	4.8356
9.7999	4.7981
9.7814	4.7993
9.7630	4.8164
9.7447	4.8192
9.7264	4.7826
9.7082	4.7461
9.6900	4.7287
9.6719	4.7402
9.6539	4.7025
9.6360	4.6369
9.6181	4.5980
9.6003	4.6287
9.5825	4.7086
9.5649	4.7067
9.5472	4.7248
9.5297	4.7916
9.5122	4.8994
9.4948	4.9411
9.4774	4.9889
9.4601	5.1253
9.4429	5.3105
9.4257	5.5219
9.4086	5.8125
9.3916	6.1148
9.3746	6.4758
9.3577	6.8395
9.3408	7.0936
9.3240	7.3310
9.3073	7.5154
9.2906	7.5715
9.2740	7.5853
9.2574	7.5940
9.2409	7.5398
9.2245	7.4911
9.2081	7.4660
9.1918	7.4337
9.1755	7.3833
9.1593	7.3647
9.1431	7.3362
9.1270	7.2351
9.1110	7.1925
9.0950	7.2173
9.0791	7.2122
9.0632	7.1824
9.0474	7.1676
9.0316	7.1348
9.0159	7.1004
9.0003	7.0924
8.9847	7.0622
8.9691	6.9937
8.9536	6.9321
8.9382	6.9534
8.9228	6.9956
8.9075	6.9548
8.8922	6.9005
8.8770	6.8503
8.8618	6.7952
8.8467	6.7324
8.8316	6.6401
8.8166	6.6054
8.8016	6.5360
8.7867	6.4594
8.7718	6.4015
8.7570	6.4008
8.7422	6.3698
8.7275	6.2484
8.7129	6.1715
8.6982	6.1305
8.6837	5.9578
8.6692	5.6236
8.6547	5.2964
8.6403	5.0395
8.6259	4.9371
8.6116	5.1218
8.5973	5.5198
8.5830	5.9147
8.5688	6.2271
8.5547	6.4448
8.5406	6.5836
8.5266	6.6656
8.5126	6.7200
8.4986	6.7434
8.4847	6.7444
8.4708	6.8231
8.4570	6.8880
8.4432	6.9572
8.4295	7.0033
8.4158	7.0240
8.4022	7.0650
8.3886	7.1412
8.3750	7.2344
8.3615	7.3050
8.3481	7.3788
8.3347	7.5176
8.3213	7.6312
8.3079	7.7409
8.2946	7.9570
8.2814	8.1436
8.2682	8.2804
8.2550	8.4511
8.2419	8.6681
8.2288	8.8092
8.2158	8.9484
8.2028	9.0548
8.1898	9.0890
8.1769	9.0384
8.1640	8.9156
8.1512	8.7244
8.1384	8.4394
8.1256	8.1169
8.1129	7.7890
8.1002	7.4939
8.0876	7.2211
8.0750	6.9680
8.0624	6.6867
8.0499	6.4340
8.0374	6.2187
8.0250	6.0173
8.0126	5.8401
8.0002	5.6400
7.9879	5.4710
7.9756	5.2884
7.9634	5.0981
7.9512	4.9125
7.9390	4.7405
7.9268	4.5600
7.9147	4.3448
7.9027	4.1901
7.8906	4.0969
7.8786	3.9998
7.8667	3.8255
7.8548	3.7059
7.8429	3.6642
7.8310	3.5920
7.8192	3.5470
7.8075	3.5365
7.7957	3.5653
7.7840	3.5812
7.7723	3.5901
7.7607	3.6089
7.7491	3.6464
7.7375	3.6211
7.7260	3.5972
7.7145	3.6159
7.7031	3.6305
7.6916	3.6455
7.6802	3.6975
7.6689	3.7809
7.6575	3.7903
7.6462	3.7392
7.6350	3.7289
7.6238	3.7509
7.6126	3.7645
7.6014	3.7959
7.5903	3.8667
7.5792	3.9131
7.5681	3.9759
7.5571	4.0439
7.5461	4.1001
7.5351	4.1573
7.5242	4.2159
7.5133	4.2745
7.5024	4.2902
7.4916	4.3207
7.4807	4.3955
7.4700	4.4676
7.4592	4.4930
7.4485	4.5722
7.4378	4.6730
7.4272	4.6983
7.4165	4.7545
7.4059	4.8605
7.3954	4.9373
7.3848	5.0615
7.3743	5.1337
7.3639	5.1469
7.3534	5.1455
7.3430	5.2205
7.3326	5.3447
7.3223	5.3967
7.3119	5.4651
7.3016	5.5490
7.2914	5.6095
7.2811	5.7380
7.2709	5.8903
7.2607	6.0094
7.2506	6.1551
7.2404	6.3047
7.2303	6.4134
7.2203	6.5344
7.2102	6.6028
7.2002	6.7012
7.1902	6.7992
7.1803	6.8395
7.1703	6.9005
7.1604	7.0242
7.1506	7.1456
7.1407	7.2759
7.1309	7.3971
7.1211	7.4761
7.1113	7.5839
7.1016	7.6917
7.0919	7.7587
7.0822	7.8309
7.0725	7.8956
7.0629	7.9537
7.0533	7.9467
7.0437	7.9889
7.0341	8.1675
7.0246	8.2737
7.0151	8.3212
7.0056	8.4173
6.9962	8.4787
6.9867	8.5631
6.9773	8.7098
6.9679	8.7736
6.9586	8.8087
6.9493	8.9550
6.9400	9.0787
6.9307	9.1847
6.9214	9.2465
6.9122	9.2803
6.9030	9.3154
6.8938	9.3722
6.8847	9.3785
6.8755	9.3075
6.8664	9.1959
6.8573	9.2489
6.8483	9.3933
6.8393	9.4640
6.8302	9.4312
6.8213	9.4514
6.8123	9.4940
6.8034	9.4748
6.7944	9.4340
6.7855	9.4214
6.7767	9.3726
6.7678	9.3398
6.7590	9.3079
6.7502	9.2461
6.7414	9.2128
6.7327	9.1500
6.7239	9.1725
6.7152	9.1786
6.7065	9.1228
6.6979	9.1336
6.6892	9.1781
6.6806	9.2929
6.6720	9.4809
6.6634	9.6619
6.6549	9.7575
6.6464	9.6562
6.6378	9.5644
6.6294	9.6454
6.6209	9.7500
6.6124	9.7908
6.6040	9.8114
6.5956	9.7036
6.5872	9.5944
6.5789	9.5250
6.5705	9.5058
6.5622	9.5339
6.5539	9.5395
6.5456	9.6769
6.5374	9.8484
6.5292	10.052
6.5209	10.286
6.5128	10.689
6.5046	10.955
6.4964	11.085
6.4883	11.368
6.4802	11.694
6.4721	11.943
6.4640	12.172
6.4560	12.317
6.4480	12.426
6.4399	12.440
6.4320	12.450
6.4240	12.391
6.4160	12.142
6.4081	12.175
6.4002	12.372
6.3923	12.268
6.3844	12.088
6.3766	11.850
6.3687	11.651
6.3609	11.574
6.3531	11.363
6.3454	11.039
6.3376	10.931
6.3299	10.833
6.3221	10.638
6.3144	10.410
6.3068	10.158
6.2991	9.9698
6.2914	9.7917
6.2838	9.5953
6.2762	9.3731
6.2686	9.2039
6.2611	9.0529
6.2535	8.8828
6.2460	8.7103
6.2385	8.6020
6.2310	8.5584
6.2235	8.5406
6.2160	8.5003
6.2086	8.4726
6.2011	8.5078
6.1937	8.5819
6.1863	8.6029
6.1790	8.8354
6.1716	9.1692
6.1643	9.4406
6.1570	9.7420
6.1496	10.096
6.1424	10.458
6.1351	10.807
6.1278	11.042
6.1206	11.154
6.1134	11.294
6.1062	11.635
6.0990	11.926
6.0918	12.127
6.0847	12.224
6.0776	12.213
6.0704	12.312
6.0633	12.512
6.0563	12.384
6.0492	12.162
6.0421	12.420
6.0351	12.655
6.0281	12.689
6.0211	12.670
6.0141	12.599
6.0071	12.609
6.0002	12.567
5.9932	12.332
5.9863	12.174
5.9794	12.080
5.9725	11.883
5.9657	11.708
5.9588	11.653
5.9520	11.538
5.9451	11.405
5.9383	11.266
5.9315	11.412
5.9247	11.708
5.9180	11.903
5.9112	12.090
5.9045	12.239
5.8978	12.270
5.8911	12.526
5.8844	12.693
5.8777	12.913
5.8711	13.331
5.8644	13.594
5.8578	13.857
5.8512	14.096
5.8446	14.348
5.8380	14.512
5.8314	14.609
5.8249	14.663
5.8184	14.918
5.8118	15.333
5.8053	15.553
5.7988	15.693
5.7923	15.853
5.7859	15.993
5.7794	16.144
5.7730	16.157
5.7666	16.124
5.7602	16.442
5.7538	16.673
5.7474	16.737
5.7410	16.913
5.7347	17.066
5.7283	17.178
5.7220	17.234
5.7157	17.236
5.7094	17.235
5.7031	17.326
5.6969	17.329
5.6906	17.298
5.6844	17.257
5.6782	17.074
5.6719	16.861
5.6657	16.646
5.6596	16.301
5.6534	15.922
5.6472	15.531
5.6411	15.153
5.6349	14.987
5.6288	14.823
5.6227	14.592
5.6166	14.401
5.6106	14.263
5.6045	14.161
5.5984	14.103
5.5924	14.074
5.5864	14.016
5.5804	13.931
5.5744	13.984
5.5684	14.137
5.5624	14.254
5.5564	14.389
5.5505	14.523
5.5445	14.712
5.5386	14.980
5.5327	15.223
5.5268	15.447
5.5209	15.788
5.5151	16.125
5.5092	16.352
5.5033	16.614
5.4975	16.963
5.4917	17.206
5.4859	17.413
5.4801	17.630
5.4743	17.898
5.4685	18.089
5.4628	18.213
5.4570	18.396
5.4513	18.556
5.4455	18.580
5.4398	18.511
5.4341	18.368
5.4284	18.028
5.4228	17.598
5.4171	17.288
5.4114	16.931
5.4058	16.447
5.4002	15.857
5.3945	15.215
5.3889	14.651
5.3833	14.123
5.3778	13.609
5.3722	13.245
5.3666	12.943
5.3611	12.715
5.3555	12.559
5.3500	12.454
5.3445	12.492
5.3390	12.573
5.3335	12.608
5.3280	12.700
5.3225	12.804
5.3171	12.890
5.3116	13.034
5.3062	13.185
5.3008	13.342
5.2954	13.504
5.2900	13.718
5.2846	14.005
5.2792	14.317
5.2738	14.684
5.2684	15.020
5.2631	15.448
5.2578	15.913
5.2524	16.369
5.2471	16.866
5.2418	17.430
5.2365	18.043
5.2312	18.669
5.2260	19.224
5.2207	19.732
5.2154	20.144
5.2102	20.508
5.2050	20.826
5.1998	21.047
5.1945	21.209
5.1893	21.259
5.1842	21.306
5.1790	21.372
5.1738	21.366
5.1686	21.317
5.1635	21.342
5.1584	21.360
5.1532	21.324
5.1481	21.273
5.1430	21.303
5.1379	21.352
5.1328	21.376
5.1277	21.378
5.1227	21.424
5.1176	21.452
5.1126	21.484
5.1075	21.520
5.1025	21.473
5.0975	21.399
5.0925	21.247
5.0875	21.035
5.0825	20.841
5.0775	20.708
5.0726	20.611
5.0676	20.565
5.0627	20.522
5.0577	20.484
5.0528	20.477
5.0479	20.497
5.0430	20.552
5.0380	20.590
5.0332	20.580
5.0283	20.510
5.0234	20.442
5.0185	20.467
5.0137	20.511
5.0088	20.553
5.0040	20.674
4.9992	20.833
4.9944	21.019
4.9896	21.201
4.9848	21.458
4.9800	21.810
4.9752	22.286
4.9704	22.860
4.9657	23.464
4.9609	23.979
4.9562	24.406
4.9514	24.814
4.9467	25.137
4.9420	25.412
4.9373	25.689
4.9326	25.933
4.9279	26.238
4.9232	26.677
4.9186	27.188
4.9139	27.770
4.9092	28.452
4.9046	29.246
4.9000	30.045
4.8953	30.783
4.8907	31.515
4.8861	32.202
4.8815	32.793
4.8769	33.307
4.8723	33.762
4.8678	34.173
4.8632	34.578
4.8586	34.946
4.8541	35.247
4.8495	35.554
4.8450	35.823
4.8405	36.050
4.8360	36.313
4.8315	36.555
4.8270	36.758
4.8225	36.938
4.8180	37.149
4.8135	37.370
4.8090	37.586
4.8046	37.754
4.8001	37.950
4.7957	38.121
4.7913	38.289
4.7868	38.465
4.7824	38.663
4.7780	38.869
4.7736	39.114
4.7692	39.347
4.7648	39.532
4.7605	39.701
4.7561	39.898
4.7517	40.106
4.7474	40.311
4.7431	40.499
4.7387	40.676
4.7344	40.866
4.7301	41.028
4.7258	41.172
4.7215	41.338
4.7172	41.487
4.7129	41.607
4.7086	41.673
4.7043	41.692
4.7000	41.679
4.6958	41.667
4.6915	41.635
4.6873	41.648
4.6831	41.729
4.6788	41.871
4.6746	42.110
4.6704	42.398
4.6662	42.675
4.6620	42.940
4.6578	43.208
4.6536	43.480
4.6495	43.726
4.6453	43.986
4.6411	44.269
4.6370	44.512
4.6328	44.723
4.6287	44.955
4.6246	45.183
4.6205	45.395
4.6163	45.615
4.6122	45.848
4.6081	46.056
4.6040	46.255
4.6000	46.446
4.5959	46.655
4.5918	46.843
4.5877	47.027
4.5837	47.196
4.5796	47.336
4.5756	47.489
4.5716	47.681
4.5675	47.826
4.5635	47.960
4.5595	48.071
4.5555	48.124
4.5515	48.151
4.5475	48.172
4.5435	48.201
4.5395	48.192
4.5356	48.143
4.5316	48.132
4.5276	48.052
4.5237	47.971
4.5197	47.868
4.5158	47.678
4.5119	47.495
4.5080	47.337
4.5040	47.143
4.5001	46.951
4.4962	46.806
4.4923	46.777
4.4884	46.752
4.4846	46.705
4.4807	46.703
4.4768	46.738
4.4730	46.761
4.4691	46.774
4.4652	46.823
4.4614	46.995
4.4576	47.259
4.4537	47.505
4.4499	47.681
4.4461	47.899
4.4423	48.123
4.4385	48.277
4.4347	48.406
4.4309	48.584
4.4271	48.785
4.4233	48.987
4.4196	49.184
4.4158	49.397
4.4120	49.613
4.4083	49.797
4.4045	49.998
4.4008	50.218
4.3971	50.445
4.3934	50.688
4.3896	50.905
4.3859	51.135
4.3822	51.378
4.3785	51.594
4.3748	51.788
4.3711	52.036
4.3674	52.269
4.3638	52.482
4.3601	52.661
4.3564	52.836
4.3528	53.007
4.3491	53.160
4.3455	53.285
4.3418	53.437
4.3382	53.546
4.3346	53.631
4.3310	53.714
4.3273	53.806
4.3237	53.890
4.3201	53.913
4.3165	53.948
4.3129	54.035
4.3094	54.082
4.3058	54.049
4.3022	54.024
4.2986	54.061
4.2951	54.118
4.2915	54.141
4.2880	54.192
4.2844	54.276
4.2809	54.368
4.2774	54.467
4.2738	54.563
4.2703	54.674
4.2668	54.789
4.2633	54.972
4.2598	55.129
4.2563	55.171
4.2528	55.174
4.2493	55.193
4.2458	55.206
4.2424	55.172
4.2389	55.150
4.2354	55.162
4.2320	55.209
4.2285	55.253
4.2251	55.324
4.2216	55.429
4.2182	55.538
4.2148	55.651
4.2113	55.706
4.2079	55.722
4.2045	55.766
4.2011	55.859
4.1977	55.900
4.1943	55.951
4.1909	56.012
4.1875	56.071
4.1841	56.108
4.1808	56.202
4.1774	56.297
4.1740	56.378
4.1707	56.452
4.1673	56.511
4.1640	56.553
4.1606	56.575
4.1573	56.600
4.1540	56.683
4.1506	56.793
4.1473	56.831
4.1440	56.864
4.1407	56.924
4.1374	57.002
4.1341	57.080
4.1308	57.115
4.1275	57.157
4.1242	57.197
4.1209	57.261
4.1177	57.331
4.1144	57.357
4.1111	57.416
4.1079	57.491
4.1046	57.531
4.1014	57.582
4.0981	57.632
4.0949	57.709
4.0917	57.751
4.0884	57.785
4.0852	57.831
4.0820	57.850
4.0788	57.882
4.0756	57.938
4.0724	57.977
4.0692	57.977
4.0660	58.021
4.0628	58.034
4.0596	58.009
4.0565	57.991
4.0533	57.964
4.0501	57.978
4.0470	57.985
4.0438	57.947
4.0406	57.933
4.0375	57.905
4.0344	57.874
4.0312	57.848
4.0281	57.813
4.0250	57.778
4.0218	57.713
4.0187	57.671
4.0156	57.627
4.0125	57.597
4.0094	57.513
4.0063	57.406
4.0032	57.330
4.0001	57.257
3.9970	57.157
3.9940	57.089
3.9909	57.011
3.9878	56.911
3.9847	56.801
3.9817	56.766
3.9786	56.749
3.9756	56.688
3.9725	56.644
3.9695	56.631
3.9665	56.613
3.9634	56.639
3.9604	56.709
3.9574	56.794
3.9544	56.901
3.9513	56.958
3.9483	57.016
3.9453	57.104
3.9423	57.184
3.9393	57.248
3.9363	57.303
3.9333	57.393
3.9304	57.468
3.9274	57.447
3.9244	57.480
3.9214	57.568
3.9185	57.551
3.9155	57.514
3.9126	57.522
3.9096	57.585
3.9067	57.613
3.9037	57.656
3.9008	57.726
3.8979	57.739
3.8949	57.741
3.8920	57.727
3.8891	57.680
3.8862	57.670
3.8833	57.650
3.8804	57.642
3.8775	57.680
3.8746	57.676
3.8717	57.592
3.8688	57.562
3.8659	57.590
3.8630	57.594
3.8601	57.584
3.8573	57.637
3.8544	57.636
3.8515	57.637
3.8487	57.665
3.8458	57.689
3.8430	57.707
3.8401	57.727
3.8373	57.745
3.8344	57.736
3.8316	57.739
3.8288	57.748
3.8259	57.748
3.8231	57.690
3.8203	57.656
3.8175	57.639
3.8147	57.601
3.8119	57.575
3.8091	57.554
3.8063	57.538
3.8035	57.564
3.8007	57.555
3.7979	57.536
3.7951	57.515
3.7924	57.522
3.7896	57.584
3.7868	57.627
3.7841	57.606
3.7813	57.606
3.7785	57.609
3.7758	57.576
3.7730	57.529
3.7703	57.507
3.7676	57.533
3.7648	57.523
3.7621	57.450
3.7594	57.405
3.7566	57.409
3.7539	57.438
3.7512	57.391
3.7485	57.352
3.7458	57.406
3.7431	57.395
3.7404	57.361
3.7377	57.335
3.7350	57.309
3.7323	57.279
3.7296	57.301
3.7269	57.287
3.7242	57.230
3.7216	57.190
3.7189	57.201
3.7162	57.193
3.7136	57.194
3.7109	57.198
3.7083	57.190
3.7056	57.186
3.7030	57.148
3.7003	57.129
3.6977	57.139
3.6950	57.121
3.6924	57.127
3.6898	57.118
3.6872	57.093
3.6845	57.118
3.6819	57.120
3.6793	57.088
3.6767	57.032
3.6741	57.026
3.6715	57.001
3.6689	56.940
3.6663	56.961
3.6637	56.919
3.6611	56.864
3.6585	56.874
3.6560	56.815
3.6534	56.760
3.6508	56.716
3.6482	56.676
3.6457	56.632
3.6431	56.578
3.6406	56.546
3.6380	56.499
3.6355	56.412
3.6329	56.363
3.6304	56.313
3.6278	56.289
3.6253	56.253
3.6227	56.158
3.6202	56.116
3.6177	56.086
3.6152	56.023
3.6127	55.933
3.6101	55.883
3.6076	55.848
3.6051	55.793
3.6026	55.708
3.6001	55.632
3.5976	55.551
3.5951	55.497
3.5926	55.434
3.5901	55.367
3.5876	55.346
3.5852	55.272
3.5827	55.143
3.5802	55.072
3.5777	55.023
3.5753	54.921
3.5728	54.822
3.5704	54.734
3.5679	54.693
3.5654	54.673
3.5630	54.584
3.5605	54.491
3.5581	54.419
3.5557	54.352
3.5532	54.342
3.5508	54.231
3.5484	54.141
3.5459	54.045
3.5435	53.998
3.5411	53.953
3.5387	53.838
3.5363	53.782
3.5338	53.727
3.5314	53.615
3.5290	53.515
3.5266	53.442
3.5242	53.407
3.5218	53.276
3.5195	53.146
3.5171	53.021
3.5147	52.932
3.5123	52.866
3.5099	52.709
3.5075	52.543
3.5052	52.433
3.5028	52.298
3.5004	52.213
3.4981	52.173
3.4957	52.103
3.4934	52.063
3.4910	51.976
3.4887	51.915
3.4863	51.829
3.4840	51.694
3.4816	51.640
3.4793	51.565
3.4770	51.516
3.4746	51.490
3.4723	51.433
3.4700	51.361
3.4677	51.259
3.4653	51.193
3.4630	51.227
3.4607	51.205
3.4584	51.109
3.4561	51.079
3.4538	50.990
3.4515	50.830
3.4492	50.758
3.4469	50.682
3.4446	50.589
3.4423	50.519
3.4400	50.570
3.4378	50.552
3.4355	50.376
3.4332	50.241
3.4309	50.175
3.4287	50.181
3.4264	50.127
3.4241	49.976
3.4219	49.805
3.4196	49.704
3.4174	49.679
3.4151	49.625
3.4129	49.494
3.4106	49.409
3.4084	49.325
3.4061	49.286
3.4039	49.322
3.4017	49.347
3.3994	49.217
3.3972	49.118
3.3950	49.080
3.3928	49.069
3.3906	48.997
3.3883	48.949
3.3861	48.900
3.3839	48.842
3.3817	48.758
3.3795	48.686
3.3773	48.592
3.3751	48.455
3.3729	48.352
3.3707	48.294
3.3685	48.240
3.3663	48.199
3.3641	48.127
3.3620	48.059
3.3598	47.960
3.3576	47.841
3.3554	47.776
3.3533	47.713
3.3511	47.574
3.3489	47.469
3.3468	47.430
3.3446	47.357
3.3425	47.290
3.3403	47.214
3.3382	47.173
3.3360	47.107
3.3339	47.015
3.3317	46.934
3.3296	46.910
3.3274	46.835
3.3253	46.722
3.3232	46.625
3.3210	46.503
3.3189	46.433
3.3168	46.337
3.3147	46.210
3.3126	46.145
3.3104	46.028
3.3083	45.923
3.3062	45.828
3.3041	45.708
3.3020	45.617
3.2999	45.603
3.2978	45.563
3.2957	45.464
3.2936	45.353
3.2915	45.303
3.2894	45.282
3.2874	45.195
3.2853	45.043
3.2832	44.929
3.2811	44.793
3.2790	44.740
3.2770	44.643
3.2749	44.541
3.2728	44.403
3.2708	44.297
3.2687	44.207
3.2666	44.124
3.2646	43.948
3.2625	43.839
3.2605	43.762
3.2584	43.612
3.2564	43.460
3.2543	43.375
3.2523	43.271
3.2503	43.143
3.2482	43.003
3.2462	42.819
3.2442	42.644
3.2421	42.568
3.2401	42.464
3.2381	42.321
3.2361	42.143
3.2340	42.050
3.2320	41.954
3.2300	41.752
3.2280	41.577
3.2260	41.508
3.2240	41.438
3.2220	41.284
3.2200	41.207
3.2180	41.064
3.2160	40.845
3.2140	40.674
3.2120	40.564
3.2100	40.363
3.2080	40.237
3.2060	40.091
3.2040	39.943
3.2021	39.790
3.2001	39.610
3.1981	39.435
3.1961	39.268
3.1942	39.076
3.1922	38.909
3.1902	38.753
3.1883	38.606
3.1863	38.468
3.1844	38.219
3.1824	38.019
3.1805	37.912
3.1785	37.710
3.1766	37.543
3.1746	37.358
3.1727	37.143
3.1707	36.919
3.1688	36.717
3.1669	36.527
3.1649	36.363
3.1630	36.217
3.1611	36.067
3.1591	35.848
3.1572	35.562
3.1553	35.294
3.1534	35.167
3.1515	34.993
3.1495	34.743
3.1476	34.562
3.1457	34.397
3.1438	34.207
3.1419	34.006
3.1400	33.833
3.1381	33.619
3.1362	33.353
3.1343	33.171
3.1324	32.996
3.1305	32.743
3.1286	32.540
3.1268	32.418
3.1249	32.197
3.1230	31.910
3.1211	31.718
3.1192	31.472
3.1174	31.293
3.1155	31.158
3.1136	30.945
3.1117	30.746
3.1099	30.507
3.1080	30.266
3.1061	30.050
3.1043	29.967
3.1024	29.815
3.1006	29.571
3.0987	29.385
3.0969	29.185
3.0950	28.958
3.0932	28.836
3.0913	28.689
3.0895	28.461
3.0876	28.223
3.0858	28.030
3.0840	27.844
3.0821	27.758
3.0803	27.603
3.0785	27.290
3.0766	27.059
3.0748	26.924
3.0730	26.777
3.0712	26.634
3.0694	26.408
3.0675	26.225
3.0657	26.077
3.0639	25.950
3.0621	25.805
3.0603	25.614
3.0585	25.412
3.0567	25.253
3.0549	25.137
3.0531	24.966
3.0513	24.773
3.0495	24.672
3.0477	24.515
3.0459	24.322
3.0441	24.140
3.0423	24.037
3.0406	23.906
3.0388	23.762
3.0370	23.704
3.0352	23.620
3.0334	23.398
3.0317	23.176
3.0299	23.076
3.0281	23.015
3.0264	22.812
3.0246	22.654
3.0228	22.676
3.0211	22.642
3.0193	22.442
3.0176	22.300
3.0158	22.160
3.0140	22.059
3.0123	21.952
3.0105	21.829
3.0088	21.711
3.0070	21.596
3.0053	21.468
3.0036	21.431
3.0018	21.361
3.0001	21.147
2.9984	21.046
2.9966	20.983
2.9949	20.879
2.9932	20.792
2.9914	20.709
2.9897	20.622
2.9880	20.446
2.9863	20.326
2.9845	20.228
2.9828	20.124
2.9811	20.005
2.9794	19.913
2.9777	19.785
2.9760	19.659
2.9743	19.558
2.9726	19.524
2.9709	19.458
2.9692	19.382
2.9675	19.292
2.9658	19.160
2.9641	19.083
2.9624	19.006
2.9607	18.933
2.9590	18.823
2.9573	18.803
2.9556	18.833
2.9539	18.689
2.9523	18.577
2.9506	18.580
2.9489	18.538
2.9472	18.452
2.9455	18.405
2.9439	18.406
2.9422	18.344
2.9405	18.205
2.9389	18.181
2.9372	18.208
2.9355	18.137
2.9339	18.143
2.9322	18.093
2.9306	18.003
2.9289	18.017
2.9272	18.011
2.9256	18.036
2.9239	18.034
2.9223	17.975
2.9207	18.052
2.9190	18.120
2.9174	18.090
2.9157	18.078
2.9141	18.039
2.9124	18.045
2.9108	18.156
2.9092	18.244
2.9075	18.289
2.9059	18.261
2.9043	18.266
2.9027	18.429
2.9010	18.519
2.8994	18.586
2.8978	18.644
2.8962	18.719
2.8946	18.851
2.8929	18.915
2.8913	18.859
2.8897	18.973
2.8881	19.175
2.8865	19.150
2.8849	19.194
2.8833	19.302
2.8817	19.318
2.8801	19.328
2.8785	19.368
2.8769	19.401
2.8753	19.498
2.8737	19.598
2.8721	19.565
2.8705	19.493
2.8689	19.497
2.8673	19.601
2.8658	19.727
2.8642	19.712
2.8626	19.581
2.8610	19.526
2.8594	19.516
2.8579	19.540
2.8563	19.590
2.8547	19.552
2.8531	19.469
2.8516	19.413
2.8500	19.396
2.8484	19.328
2.8469	19.292
2.8453	19.275
2.8437	19.174
2.8422	19.087
2.8406	19.004
2.8391	18.972
2.8375	18.871
2.8360	18.769
2.8344	18.640
2.8329	18.640
2.8313	18.635
2.8298	18.514
2.8282	18.389
2.8267	18.335
2.8252	18.288
2.8236	18.160
2.8221	18.053
2.8205	18.016
2.8190	17.897
2.8175	17.835
2.8159	17.855
2.8144	17.846
2.8129	17.798
2.8114	17.891
2.8098	17.885
2.8083	17.762
2.8068	17.821
2.8053	17.920
2.8038	18.009
2.8022	18.056
2.8007	18.235
2.7992	18.399
2.7977	18.486
2.7962	18.598
2.7947	18.692
2.7932	18.825
2.7917	18.981
2.7902	19.121
2.7887	19.181
2.7872	19.228
2.7857	19.420
2.7842	19.750
2.7827	20.069
2.7812	20.351
2.7797	20.762
2.7782	21.179
2.7767	21.503
2.7752	21.938
2.7738	22.320
2.7723	22.615
2.7708	22.781
2.7693	22.875
2.7678	22.988
2.7664	23.080
2.7649	23.000
2.7634	22.825
2.7619	22.870
2.7605	23.143
2.7590	23.384
2.7575	23.506
2.7561	23.452
2.7546	23.617
2.7531	24.049
2.7517	24.306
2.7502	24.476
2.7488	24.665
2.7473	24.831
2.7458	25.018
2.7444	25.234
2.7429	25.379
2.7415	25.442
2.7400	25.605
2.7386	26.024
2.7371	26.580
2.7357	26.871
2.7343	27.155
2.7328	27.644
2.7314	28.093
2.7299	28.500
2.7285	29.055
2.7271	29.612
2.7256	29.966
2.7242	30.471
2.7228	31.458
2.7213	32.073
2.7199	32.661
2.7185	33.846
2.7171	34.780
2.7156	35.618
2.7142	36.473
2.7128	37.019
2.7114	37.210
2.7100	37.768
2.7085	38.650
2.7071	39.445
2.7057	40.159
2.7043	40.903
2.7029	41.698
2.7015	42.541
2.7001	43.664
2.6987	44.786
2.6973	45.719
2.6959	46.613
2.6945	47.459
2.6931	48.701
2.6917	50.326
2.6903	51.639
2.6889	52.758
2.6875	53.894
2.6861	55.149
2.6847	56.239
2.6833	57.141
2.6819	58.058
2.6805	58.533
2.6791	58.503
2.6778	58.674
2.6764	58.780
2.6750	59.385
2.6736	59.884
2.6722	59.661
2.6709	58.742
2.6695	59.122
2.6681	59.866
2.6667	59.493
2.6654	59.459
2.6640	60.058
2.6626	60.818
2.6613	60.965
2.6599	60.955
2.6585	61.037
2.6572	61.288
2.6558	61.225
2.6545	61.282
2.6531	61.222
2.6517	61.308
2.6504	61.643
2.6490	61.781
2.6477	61.678
2.6463	61.519
2.6450	61.594
2.6436	61.841
2.6423	61.842
2.6409	61.920
2.6396	62.059
2.6382	62.205
2.6369	62.146
2.6356	62.024
2.6342	61.861
2.6329	61.878
2.6315	61.594
2.6302	61.265
2.6289	61.825
2.6275	61.866
2.6262	61.612
2.6249	62.082
2.6236	62.398
2.6222	62.289
2.6209	61.621
2.6196	61.591
2.6183	61.893
2.6169	61.617
2.6156	61.936
2.6143	62.326
2.6130	62.328
2.6117	62.421
2.6103	62.293
2.6090	62.223
2.6077	62.148
2.6064	61.737
2.6051	61.539
2.6038	61.931
2.6025	62.193
2.6012	62.411
2.5999	62.556
2.5986	62.616
2.5973	62.363
2.5960	61.351
2.5947	60.463
2.5934	61.351
2.5921	62.448
2.5908	62.642
2.5895	62.526
2.5882	62.390
2.5869	62.354
2.5856	62.412
2.5843	61.982
2.5830	62.005
2.5817	62.434
2.5805	62.651
2.5792	62.839
2.5779	62.545
2.5766	62.366
2.5753	62.595
2.5741	62.431
2.5728	62.339
2.5715	62.688
2.5702	62.589
2.5690	62.556
2.5677	62.847
2.5664	62.928
2.5651	62.647
2.5639	62.355
2.5626	62.342
2.5613	62.438
2.5601	62.686
2.5588	63.001
2.5575	63.096
2.5563	63.064
2.5550	63.073
2.5538	63.039
2.5525	62.929
2.5513	63.023
2.5500	63.109
2.5487	63.128
2.5475	63.063
2.5462	63.088
2.5450	63.183
2.5437	63.081
2.5425	63.001
2.5413	63.165
2.5400	63.220
2.5388	63.247
2.5375	63.223
2.5363	63.159
2.5350	63.229
2.5338	63.330
2.5326	63.318
2.5313	63.351
2.5301	63.357
2.5289	63.353
2.5276	63.396
2.5264	63.417
2.5252	63.428
2.5239	63.505
2.5227	63.584
2.5215	63.587
2.5202	63.617
2.5190	63.585
2.5178	63.536
2.5166	63.492
2.5154	63.457
2.5141	63.514
2.5129	63.591
2.5117	63.591
2.5105	63.596
2.5093	63.666
2.5081	63.656
2.5068	63.584
2.5056	63.636
2.5044	63.634
2.5032	63.611
2.5020	63.688
2.5008	63.753
2.4996	63.696
2.4984	63.653
2.4972	63.687
2.4960	63.738
2.4948	63.782
2.4936	63.738
2.4924	63.690
2.4912	63.768
2.4900	63.812
2.4888	63.787
2.4876	63.788
2.4864	63.836
2.4852	63.922
2.4840	64.018
2.4828	63.947
2.4816	63.902
2.4805	63.973
2.4793	64.013
2.4781	63.989
2.4769	64.037
2.4757	64.112
2.4745	64.195
2.4734	64.205
2.4722	64.156
2.4710	64.180
2.4698	64.230
2.4686	64.276
2.4675	64.331
2.4663	64.403
2.4651	64.384
2.4640	64.389
2.4628	64.408
2.4616	64.413
2.4604	64.543
2.4593	64.566
2.4581	64.556
2.4569	64.567
2.4558	64.563
2.4546	64.604
2.4535	64.603
2.4523	64.585
2.4511	64.588
2.4500	64.618
2.4488	64.619
2.4477	64.697
2.4465	64.756
2.4454	64.722
2.4442	64.722
2.4431	64.732
2.4419	64.741
2.4408	64.731
2.4396	64.777
2.4385	64.849
2.4373	64.832
2.4362	64.735
2.4350	64.708
2.4339	64.814
2.4327	64.899
2.4316	64.841
2.4305	64.804
2.4293	64.882
2.4282	64.856
2.4270	64.817
2.4259	64.868
2.4248	64.864
2.4236	64.815
2.4225	64.736
2.4214	64.713
2.4202	64.812
2.4191	64.838
2.4180	64.722
2.4169	64.609
2.4157	64.575
2.4146	64.549
2.4135	64.589
2.4124	64.583
2.4112	64.556
2.4101	64.547
2.4090	64.494
2.4079	64.386
2.4068	64.321
2.4056	64.349
2.4045	64.417
2.4034	64.358
2.4023	64.313
2.4012	64.282
2.4001	64.260
2.3990	64.245
2.3979	64.219
2.3967	64.160
2.3956	64.156
2.3945	64.217
2.3934	64.191
2.3923	64.096
2.3912	63.955
2.3901	63.936
2.3890	63.989
2.3879	63.933
2.3868	63.820
2.3857	63.683
2.3846	63.643
2.3835	63.689
2.3824	63.715
2.3813	63.650
2.3802	63.568
2.3791	63.510
2.3781	63.439
2.3770	63.358
2.3759	63.300
2.3748	63.187
2.3737	63.026
2.3726	62.921
2.3715	62.861
2.3704	62.774
2.3694	62.591
2.3683	62.488
2.3672	62.481
2.3661	62.421
2.3650	62.356
2.3640	62.252
2.3629	62.185
2.3618	62.013
2.3607	61.885
2.3597	61.862
2.3586	61.867
2.3575	61.758
2.3564	61.600
2.3554	61.613
2.3543	61.626
2.3532	61.513
2.3522	61.350
2.3511	61.330
2.3500	61.416
2.3490	61.396
2.3479	61.424
2.3468	61.522
2.3458	61.542
2.3447	61.510
2.3436	61.418
2.3426	61.435
2.3415	61.548
2.3405	61.621
2.3394	61.653
2.3384	61.735
2.3373	61.799
2.3363	61.876
2.3352	61.974
2.3342	62.090
2.3331	62.209
2.3321	62.322
2.3310	62.372
2.3300	62.351
2.3289	62.410
2.3279	62.572
2.3268	62.677
2.3258	62.753
2.3247	62.885
2.3237	63.013
2.3226	63.062
2.3216	63.054
2.3206	63.200
2.3195	63.354
2.3185	63.381
2.3175	63.363
2.3164	63.423
2.3154	63.529
2.3144	63.631
2.3133	63.614
2.3123	63.634
2.3113	63.845
2.3102	63.971
2.3092	64.032
2.3082	64.019
2.3071	64.001
2.3061	64.089
2.3051	64.206
2.3041	64.386
2.3030	64.403
2.3020	64.323
2.3010	64.445
2.3000	64.565
2.2990	64.575
2.2979	64.621
2.2969	64.706
2.2959	64.702
2.2949	64.771
2.2939	64.800
2.2929	64.803
2.2918	64.857
2.2908	64.972
2.2898	65.025
2.2888	64.990
2.2878	64.984
2.2868	65.063
2.2858	65.140
2.2848	65.101
2.2838	65.123
2.2828	65.093
2.2818	64.994
2.2808	65.006
2.2798	65.038
2.2787	64.928
2.2777	64.845
2.2767	64.819
2.2757	64.740
2.2747	64.559
2.2738	64.532
2.2728	64.531
2.2718	64.455
2.2708	64.320
2.2698	64.164
2.2688	64.033
2.2678	64.007
2.2668	63.975
2.2658	63.839
2.2648	63.657
2.2638	63.433
2.2628	63.255
2.2618	63.132
2.2609	63.025
2.2599	62.916
2.2589	62.846
2.2579	62.807
2.2569	62.807
2.2559	62.764
2.2550	62.652
2.2540	62.665
2.2530	62.804
2.2520	62.901
2.2510	62.967
2.2501	63.091
2.2491	63.352
2.2481	63.630
2.2471	63.763
2.2462	63.994
2.2452	64.381
2.2442	64.616
2.2433	64.741
2.2423	65.012
2.2413	65.331
2.2403	65.594
2.2394	65.722
2.2384	65.856
2.2374	66.124
2.2365	66.310
2.2355	66.407
2.2345	66.537
2.2336	66.650
2.2326	66.746
2.2317	66.847
2.2307	66.910
2.2297	67.007
2.2288	67.050
2.2278	67.121
2.2269	67.274
2.2259	67.382
2.2250	67.369
2.2240	67.336
2.2231	67.400
2.2221	67.368
2.2211	67.301
2.2202	67.345
2.2192	67.489
2.2183	67.561
2.2173	67.592
2.2164	67.517
2.2155	67.540
2.2145	67.620
2.2136	67.672
2.2126	67.748
2.2117	67.696
2.2107	67.595
2.2098	67.602
2.2088	67.722
2.2079	67.803
2.2070	67.815
2.2060	67.820
2.2051	67.846
2.2041	67.931
2.2032	68.016
2.2023	68.020
2.2013	67.899
2.2004	67.909
2.1995	68.003
2.1985	68.081
2.1976	68.038
2.1967	68.036
2.1957	68.104
2.1948	68.156
2.1939	68.207
2.1930	68.271
2.1920	68.378
2.1911	68.420
2.1902	68.226
2.1893	68.226
2.1883	68.214
2.1874	68.241
2.1865	68.305
2.1856	68.380
2.1846	68.284
2.1837	68.260
2.1828	68.312
2.1819	68.390
2.1810	68.409
2.1800	68.299
2.1791	68.378
2.1782	68.512
2.1773	68.503
2.1764	68.550
2.1755	68.503
2.1746	68.401
2.1736	68.344
2.1727	68.405
2.1718	68.511
2.1709	68.545
2.1700	68.593
2.1691	68.563
2.1682	68.457
2.1673	68.418
2.1664	68.421
2.1655	68.418
2.1646	68.513
2.1637	68.556
2.1628	68.558
2.1619	68.529
2.1610	68.323
2.1601	68.246
2.1592	68.419
2.1583	68.528
2.1574	68.516
2.1565	68.555
2.1556	68.504
2.1547	68.503
2.1538	68.532
2.1529	68.465
2.1520	68.465
2.1511	68.468
2.1502	68.492
2.1493	68.549
2.1484	68.609
2.1475	68.552
2.1466	68.502
2.1458	68.496
2.1449	68.436
2.1440	68.542
2.1431	68.582
2.1422	68.435
2.1413	68.434
2.1404	68.510
2.1396	68.565
2.1387	68.462
2.1378	68.499
2.1369	68.405
2.1360	68.432
2.1352	68.409
2.1343	68.373
2.1334	68.451
2.1325	68.477
2.1316	68.490
2.1308	68.466
2.1299	68.445
2.1290	68.535
2.1281	68.573
2.1273	68.503
2.1264	68.413
2.1255	68.496
2.1247	68.441
2.1238	68.455
2.1229	68.572
2.1220	68.625
2.1212	68.645
2.1203	68.695
2.1194	68.460
2.1186	68.399
2.1177	68.524
2.1168	68.584
2.1160	68.533
2.1151	68.584
2.1143	68.587
2.1134	68.488
2.1125	68.374
2.1117	68.414
2.1108	68.466
2.1100	68.520
2.1091	68.491
2.1082	68.496
2.1074	68.575
2.1065	68.554
2.1057	68.450
2.1048	68.344
2.1040	68.304
2.1031	68.411
2.1023	68.557
2.1014	68.374
2.1005	68.307
2.0997	68.552
2.0988	68.610
2.0980	68.466
2.0971	68.449
2.0963	68.605
2.0955	68.608
2.0946	68.524
2.0938	68.539
2.0929	68.593
2.0921	68.685
2.0912	68.823
2.0904	68.656
2.0895	68.552
2.0887	68.722
2.0879	68.709
2.0870	68.559
2.0862	68.447
2.0853	68.440
2.0845	68.575
2.0837	68.582
2.0828	68.544
2.0820	68.588
2.0812	68.539
2.0803	68.484
2.0795	68.494
2.0760	68.494
2.0720	68.804
2.0680	69.085
2.0640	68.990
2.0600	68.370
2.0560	68.927
2.0520	68.927
2.0480	68.123
2.0440	67.846
2.0400	67.541
2.0360	67.941
2.0320	67.572
2.0280	67.422
2.0240	67.090
2.0200	66.904
2.0160	66.904
2.0120	66.720
2.0080	66.332
2.0040	66.032
2.0000	66.155
1.9960	65.524
1.9920	65.500
1.9880	66.070
1.9840	66.012
1.9800	64.851
1.9760	64.784
1.9720	64.908
1.9680	64.851
1.9640	64.908
1.9600	64.736
1.9560	64.713
1.9520	65.137
1.9480	65.047
1.9440	64.899
1.9400	64.536
1.9360	64.231
1.9320	64.243
1.9280	64.221
1.9240	64.499
1.9200	64.431
1.9160	64.061
1.9120	64.165
1.9080	64.547
1.9040	64.492
1.9000	64.498
1.8960	64.503
1.8920	64.503
1.8880	64.549
1.8840	64.473
1.8800	63.816
1.8760	63.838
1.8720	63.448
1.8680	63.244
1.8640	63.789
1.8600	64.574
1.8560	64.575
1.8520	64.591
1.8480	64.572
1.8440	64.204
1.8400	63.559
1.8360	63.611
1.8320	64.161
1.8280	64.566
1.8240	64.429
1.8200	64.192
1.8160	63.948
1.8120	63.475
1.8080	63.584
1.8040	63.804
1.8000	63.408
1.7960	63.143
1.7920	63.000
1.7880	62.730
1.7840	62.539
1.7800	62.735
1.7760	62.789
1.7720	62.986
1.7680	62.898
1.7640	62.559
1.7600	62.329
1.7560	62.187
1.7520	62.011
1.7480	61.851
1.7440	61.992
1.7400	62.171
1.7360	61.976
1.7320	62.171
1.7280	62.332
1.7240	62.386
1.7200	62.228
1.7160	62.514
1.7120	62.228
1.7080	61.730
1.7040	61.571
1.7000	61.588
1.6960	61.535
1.6920	61.412
1.6880	61.412
1.6840	61.334
1.6800	61.324
1.6760	61.094
1.6720	60.778
1.6680	60.673
1.6640	60.700
1.6600	60.873
1.6560	60.436
1.6520	60.400
1.6480	60.332
1.6440	60.244
1.6400	60.592
1.6360	60.047
1.6320	59.907
1.6280	60.218
1.6240	60.150
1.6200	59.907
1.6160	59.365
1.6120	59.203
1.6080	59.114
1.6040	59.114
1.6000	58.925
1.5960	58.837
1.5920	59.016
1.5880	58.977
1.5840	58.972
1.5800	58.927
1.5760	58.750
1.5720	58.510
1.5680	58.510
1.5640	58.649
1.5600	58.343
1.5560	58.309
1.5520	57.952
1.5480	57.893
1.5440	57.599
1.5400	57.490
1.5360	57.255
1.5320	57.216
1.5280	57.167
1.5240	57.060
1.5200	57.216
1.5160	57.217
1.5120	57.090
1.5080	56.720
1.5040	56.043
1.5000	56.164
1.4960	55.876
1.4920	56.697
1.4880	56.716
1.4840	56.472
1.4800	56.453
1.4760	56.365
1.4720	56.141
1.4680	55.868
1.4640	55.703
1.4600	55.605
1.4560	55.392
1.4520	55.209
1.4480	55.081
1.4440	54.631
1.4400	54.112
1.4360	54.025
1.4320	54.106
1.4280	54.214
1.4240	54.214
1.4200	54.080
1.4160	53.668
1.4120	52.965
1.4080	52.222
1.4040	52.095
1.4000	52.199
1.3960	52.475
1.3920	52.323
1.3880	52.337
1.3840	52.323
1.3800	52.525
1.3760	52.327
1.3720	51.451
1.3680	51.451
1.3640	51.350
1.3600	51.247
1.3560	51.282
1.3520	51.373
1.3480	51.405
1.3440	51.405
1.3400	51.305
1.3360	51.238
1.3320	51.036
1.3280	50.689
1.3240	50.642
1.3200	50.814
1.3160	50.900
1.3120	50.571
1.3080	50.268
1.3040	50.095
1.3000	49.924
1.2960	49.662
1.2920	49.614
1.2880	49.260
1.2840	48.823
1.2800	48.550
1.2760	48.405
1.2720	48.170
1.2680	48.117
1.2640	48.230
1.2600	48.544
1.2560	48.841
1.2520	48.755
1.2480	48.702
1.2440	48.432
1.2400	48.517
1.2360	48.511
1.2320	48.152
1.2280	47.380
1.2240	47.089
1.2200	46.951
1.2160	47.063
1.2120	47.179
1.2080	47.065
1.2040	47.279
1.2000	46.845
1.1960	46.066
1.1920	45.781
1.1880	45.703
1.1840	45.499
1.1800	45.422
1.1760	45.257
1.1720	45.093
1.1680	44.727
1.1640	44.477
1.1600	44.368
1.1560	43.867
1.1520	43.766
1.1480	43.914
1.1440	43.972
1.1400	43.917
1.1360	44.337
1.1320	43.889
1.1280	44.171
1.1240	43.927
1.1200	43.974
1.1160	43.909
1.1120	43.444
1.1080	43.318
1.1040	43.636
1.1000	43.407
1.0960	43.355
1.0920	43.593
1.0880	43.454
1.0840	43.327
1.0800	43.128
1.0760	43.238
1.0720	43.039
1.0680	43.008
1.0640	43.180
1.0600	42.992
1.0560	42.815
1.0520	42.893
1.0480	42.966
1.0440	42.919
1.0400	42.831
1.0360	42.903
1.0320	43.039
1.0280	42.716
1.0240	42.752
1.0200	42.888
1.0160	42.960
1.0120	42.935
1.0080	42.716
1.0040	42.395
1.0000	42.359
0.99600	42.539
0.99200	42.825
0.98800	42.664
0.98400	42.379
0.98000	42.041
0.97600	41.954
0.97200	41.990
0.96800	41.849
0.96400	41.549
0.96000	41.584
0.95600	41.566
0.95200	41.397
0.94800	41.116
0.94400	41.114
0.94000	41.044
0.93600	40.956
0.93200	40.779
0.92800	40.587
0.92400	40.518
0.92000	40.411
0.91600	40.357
0.91200	39.980
0.90800	39.912
0.90400	39.994
0.90000	39.763
0.89600	39.696
0.89200	39.641
0.88800	39.465
0.88400	39.478
0.88000	39.647
0.87600	39.525
0.87200	39.559
0.86800	39.640
0.86400	39.688
0.86000	39.713
0.85600	39.500
0.85200	39.603
0.84800	39.599
0.84400	39.500
0.84000	39.667
0.83600	39.816
0.83200	39.880
0.82800	39.970
0.82400	39.946
0.82000	39.897
0.81600	40.149
0.81200	40.238
0.80800	40.199
0.80400	40.047
0.80000	40.032
0.79900	40.032
0.79800	40.032
0.79700	40.125
0.79600	40.049
0.79500	40.128
0.79400	39.898
0.79300	39.864
0.79200	39.826
0.79100	39.730
0.79000	40.036
0.78900	40.032
0.78800	39.821
0.78700	39.915
0.78600	39.856
0.78500	39.856
0.78400	39.856
0.78300	39.990
0.78200	39.915
0.78100	39.932
0.78000	40.143
0.77900	39.987
0.77800	39.700
0.77700	39.528
0.77600	39.454
0.77500	39.657
0.77400	39.509
0.77300	39.818
0.77200	39.756
0.77100	39.663
0.77000	39.566
0.76900	39.659
0.76800	39.547
0.76700	39.659
0.76600	39.846
0.76500	39.466
0.76400	39.504
0.76300	39.563
0.76200	39.124
0.76100	39.176
0.76000	39.429
0.75900	39.504
0.75800	39.251
0.75700	39.191
0.75600	39.117
0.75500	39.176
0.75400	39.117
0.75300	39.154
0.75200	39.176
0.75100	38.849
0.75000	38.886
0.74900	38.693
0.74800	38.583
0.74700	39.148
0.74600	39.169
0.74500	39.266
0.74400	39.148
0.74300	38.880
0.74200	38.769
0.74100	39.260
0.74000	39.298
0.73900	38.880
0.73800	38.880
0.73700	38.820
0.73600	38.783
0.73500	38.686
0.73400	38.439
0.73300	38.663
0.73200	38.849
0.73100	38.872
0.73000	38.700
0.72900	38.909
0.72800	38.586
0.72700	38.700
0.72600	38.065
0.72500	38.700
0.72400	38.700
0.72300	38.479
0.72200	38.190
0.72100	38.663
0.72000	38.276
0.71900	38.179
0.71800	38.326
0.71700	38.192
0.71600	37.895
0.71500	38.386
0.71400	38.646
0.71300	38.511
0.71200	38.457
0.71100	37.973
0.71000	37.780
0.70900	37.829
0.70800	37.914
0.70700	38.216
0.70600	38.420
0.70500	38.666
0.70400	38.861
0.70300	38.092
0.70200	37.910
0.70100	37.968
0.70000	38.029
0.69900	38.023
0.69800	38.808
0.69700	38.673
0.69600	38.427
0.69500	38.312
0.69400	38.236
0.69300	38.309
0.69200	38.309
0.69100	38.423
0.69000	38.285
0.68900	38.173
0.68800	38.361
0.68700	38.423
0.68600	38.423
0.68500	38.437
0.68400	38.461
0.68300	38.437
0.68200	38.250
0.68100	38.274
0.68000	38.060
0.67900	37.948
0.67800	37.848
0.67700	38.427
0.67600	38.149
0.67500	38.036
0.67400	38.074
0.67300	38.036
0.67200	37.848
0.67100	38.275
0.67000	38.136
0.66900	37.823
0.66800	38.125
0.66700	38.100
0.66600	38.125
0.66500	38.036
0.66400	38.060
0.66300	38.111
0.66200	38.466
0.66100	38.327
0.66000	38.011
0.65900	38.024
0.65800	38.038
0.65700	38.051
0.65600	37.975
0.65500	37.823
0.65400	37.975
0.65300	38.038
0.65200	38.050
0.65100	38.291
0.65000	37.974
0.64900	37.924
0.64800	37.924
0.64700	38.240
0.64600	38.279
0.64500	38.240
0.64400	38.125
0.64300	37.823
0.64200	37.899
0.64100	38.076
0.64000	38.076
0.63900	37.975
0.63800	37.872
0.63700	38.000
0.63600	37.962
0.63500	38.125
0.63400	38.164
0.63300	37.962
0.63200	37.899
0.63100	37.823
0.63000	37.646
0.62900	37.646
0.62800	37.848
0.62700	37.532
0.62600	37.532
0.62500	37.735
0.62400	37.570
0.62300	37.925
0.62200	37.620
0.62100	37.684
0.62000	37.722
0.61900	37.620
0.61800	37.658
0.61700	37.481
0.61600	37.341
0.61500	37.368
0.61400	37.266
0.61300	37.192
0.61200	37.229
0.61100	37.128
0.61000	37.229
0.60900	37.229
0.60800	37.229
0.60700	37.266
0.60600	37.037
0.60500	37.074
0.60400	37.074
0.60300	37.046
0.60200	37.096
0.60100	37.247
0.60000	36.827
0.59900	36.687
0.59800	36.836
0.59700	36.912
0.59600	37.063
0.59500	37.177
0.59400	36.997
0.59300	36.829
0.59200	36.753
0.59100	36.753
0.59000	36.846
0.58900	36.997
0.58800	37.035
0.58700	36.856
0.58600	36.856
0.58500	36.641
0.58400	36.753
0.58300	36.866
0.58200	36.435
0.58100	36.829
0.58000	36.753
0.57900	36.829
0.57800	36.753
0.57700	36.753
0.57600	36.959
0.57500	36.959
0.57400	36.843
0.57300	36.956
0.57200	36.760
0.57100	36.429
0.57000	36.401
0.56900	36.262
0.56800	36.226
0.56700	36.429
0.56600	36.262
0.56500	36.262
0.56400	35.958
0.56300	35.922
0.56200	35.617
0.56100	35.791
0.56000	35.899
0.55900	36.188
0.55800	35.973
0.55700	35.968
0.55600	35.275
0.55500	35.140
0.55400	35.043
0.55300	34.980
0.55200	35.015
0.55100	34.830
0.55000	34.835
0.54900	35.476
0.54800	35.476
0.54700	35.233
0.54600	35.342
0.54500	35.066
0.54400	35.033
0.54300	35.203
0.54200	35.238
0.54100	35.248
0.54000	35.006
0.53900	34.839
0.53800	34.975
0.53700	35.053
0.53600	35.014
0.53500	35.014
0.53400	35.019
0.53300	34.881
0.53200	34.545
0.53100	34.579
0.53000	34.682
0.52900	34.617
0.52800	34.950
0.52700	34.847
0.52600	34.448
0.52500	34.384
0.52400	34.554
0.52300	34.216
0.52200	33.985
0.52100	34.151
0.52000	34.319
0.51900	34.389
0.51800	33.789
0.51700	34.053
0.51600	34.219
0.51500	33.788
0.51400	33.461
0.51300	33.590
0.51200	33.392
0.51100	33.197
0.51000	33.691
0.50900	33.855
0.50800	33.002
0.50700	33.298
0.50600	33.105
0.50500	33.199
0.50400	33.296
0.50300	33.100
0.50200	33.195
0.50100	32.903
0.50000	32.836
0.49900	32.801
0.49800	32.772
0.49700	32.801
0.49600	32.576
0.49500	32.770
0.49400	32.579
0.49300	32.234
0.49200	32.548
0.49100	32.576
0.49000	32.374
0.48900	32.120
0.48800	32.089
0.48700	32.126
0.48600	32.060
0.48500	31.765
0.48400	31.665
0.48300	31.986
0.48200	32.103
0.48100	31.782
0.48000	31.591
0.47900	31.305
0.47800	31.230
0.47700	31.230
0.47600	31.290
0.47500	31.161
0.47400	31.033
0.47300	30.945
0.47200	30.945
0.47100	30.906
0.47000	31.045
0.46900	30.664
0.46800	30.664
0.46700	30.427
0.46600	30.369
0.46500	30.380
0.46400	30.284
0.46300	30.541
0.46200	30.232
0.46100	30.358
0.46000	30.107
0.45900	30.064
0.45800	30.267
0.45700	29.974
0.45600	30.045
0.45500	29.781
0.45400	29.914
0.45300	29.714
0.45200	29.566
0.45100	29.707
0.45000	29.847
0.44900	29.819
0.44800	29.408
0.44700	29.337
0.44600	29.154
0.44500	28.913
0.44400	29.011
0.44300	29.303
0.44200	29.265
0.44100	29.032
0.44000	29.143
0.43900	28.664
0.43800	28.619
0.43700	28.756
0.43600	27.941
0.43500	28.247
0.43400	27.990
0.43300	28.043
0.43200	27.986
0.43100	27.886
0.43000	27.831
0.42900	28.093
0.42800	27.662
0.42700	27.698
0.42600	27.646
0.42500	27.354
0.42400	27.219
0.42300	27.141
0.42200	26.911
0.42100	26.902
0.42000	27.188
0.41900	26.902
0.41800	26.824
0.41700	26.824
0.41600	26.824
0.41500	26.720
0.41400	26.532
0.41300	25.784
0.41200	26.181
0.41100	26.084
0.41000	26.151
0.40900	25.689
0.40800	25.677
0.40700	25.746
0.40600	25.746
0.40500	25.557
0.40400	25.471
0.40300	25.475
0.40200	25.353
0.40100	25.223
0.40000	25.312
