Name: Argillaceous Limestone 
Type:  Rocks
Class:  Sedimentary
Subclass: Limestone
Particle Size:  0 - 75 Micrometers
Sample No.:  limestone.6
Owner:  JHU
Wavelength Range:  All
Origin:  Sample No. 359,  The Hunt and Salisbury Collection at the U.S. 
Geological Survey, Denver, Co.
Description: A fine-grained sample with uniserial and some biserial 
foraminiferid tests recrystallized to calcite ("globigerinid ooze").  The 
matrix contains cloudy brown material (clay), carbonate, quartz and 
a reddish-brown phase (hematite?).  There are scattered subrounded 
grains of quartz present as well.  The reddish material occurs as 
irregular flecks and discontinuous bands throughout the section. 
Measurement:  Directional (10 Degree) Hemispherical Reflectance
First Column:  X
Second Column:  Y  
X Units:  Wavelength (micrometers)
Y Units:  Reflectance (percent)
First X Value: 14.9831
Last X Value:  0.4
Number of X Values:  2868
Additional Information:  None

14.983	9.0509
14.940	9.1094
14.897	9.1688
14.854	9.2616
14.812	9.3947
14.770	9.5458
14.728	9.6687
14.686	9.7071
14.645	9.6060
14.603	9.3286
14.562	8.8766
14.521	8.3025
14.481	7.7069
14.441	7.2120
14.400	6.9155
14.361	6.8471
14.321	6.9378
14.281	7.0280
14.242	6.9214
14.203	6.4639
14.164	5.6170
14.126	4.4910
14.087	3.3237
14.049	2.4096
14.011	1.9992
13.973	2.2180
13.936	3.0329
13.899	4.2759
13.861	5.7089
13.824	7.1019
13.788	8.2935
13.751	9.2145
13.715	9.8726
13.679	10.319
13.643	10.615
13.607	10.808
13.571	10.926
13.536	10.985
13.500	10.996
13.465	10.970
13.430	10.921
13.396	10.860
13.361	10.791
13.327	10.717
13.293	10.634
13.259	10.540
13.225	10.430
13.191	10.296
13.158	10.130
13.124	9.9110
13.091	9.6169
13.058	9.2223
13.026	8.7129
12.993	8.0939
12.960	7.4010
12.928	6.6998
12.896	6.0734
12.864	5.6007
12.832	5.3333
12.800	5.2760
12.769	5.3816
12.737	5.5638
12.706	5.7212
12.675	5.7667
12.644	5.6511
12.614	5.3769
12.583	4.9971
12.552	4.6037
12.522	4.3051
12.492	4.2023
12.462	4.3657
12.432	4.8183
12.402	5.5306
12.373	6.4291
12.343	7.4130
12.314	8.3802
12.285	9.2462
12.256	9.9602
12.227	10.507
12.198	10.901
12.169	11.171
12.141	11.357
12.113	11.503
12.084	11.654
12.056	11.843
12.028	12.083
12.000	12.351
11.973	12.580
11.945	12.672
11.918	12.541
11.890	12.174
11.863	11.649
11.836	11.123
11.809	10.782
11.782	10.769
11.755	11.106
11.729	11.675
11.702	12.265
11.676	12.643
11.650	12.621
11.624	12.098
11.598	11.080
11.572	9.6649
11.546	8.0006
11.520	6.2522
11.495	4.5855
11.469	3.1437
11.444	2.0288
11.419	1.3027
11.394	0.99980
11.369	1.1351
11.344	1.6973
11.319	2.6410
11.294	3.8748
11.270	5.2583
11.245	6.6164
11.221	7.7801
11.197	8.6300
11.173	9.1212
11.149	9.2801
11.125	9.1842
11.101	8.9277
11.077	8.5933
11.054	8.2386
11.030	7.8999
11.007	7.6011
10.983	7.3583
10.960	7.1824
10.937	7.0775
10.914	7.0396
10.891	7.0547
10.868	7.1045
10.846	7.1689
10.823	7.2328
10.800	7.2871
10.778	7.3283
10.756	7.3583
10.733	7.3830
10.711	7.4076
10.689	7.4379
10.667	7.4765
10.645	7.5232
10.623	7.5736
10.602	7.6217
10.580	7.6591
10.558	7.6776
10.537	7.6700
10.516	7.6312
10.494	7.5587
10.473	7.4519
10.452	7.3124
10.431	7.1431
10.410	6.9489
10.389	6.7346
10.368	6.5049
10.348	6.2640
10.327	6.0161
10.306	5.7650
10.286	5.5147
10.266	5.2699
10.245	5.0347
10.225	4.8126
10.205	4.6049
10.185	4.4119
10.165	4.2326
10.145	4.0664
10.125	3.9120
10.106	3.7687
10.086	3.6363
10.066	3.5153
10.047	3.4054
10.027	3.3071
10.008	3.2202
9.9887	3.1442
9.9695	3.0772
9.9504	3.0175
9.9313	2.9633
9.9123	2.9133
9.8934	2.8669
9.8746	2.8245
9.8558	2.7864
9.8371	2.7532
9.8185	2.7243
9.7999	2.6997
9.7814	2.6789
9.7630	2.6620
9.7447	2.6495
9.7264	2.6410
9.7082	2.6362
9.6900	2.6346
9.6719	2.6350
9.6539	2.6377
9.6360	2.6438
9.6181	2.6547
9.6003	2.6722
9.5825	2.6964
9.5649	2.7265
9.5472	2.7606
9.5297	2.7966
9.5122	2.8340
9.4948	2.8747
9.4774	2.9218
9.4601	2.9791
9.4429	3.0509
9.4257	3.1404
9.4086	3.2491
9.3916	3.3760
9.3746	3.5179
9.3577	3.6678
9.3408	3.8165
9.3240	3.9529
9.3073	4.0675
9.2906	4.1542
9.2740	4.2115
9.2574	4.2426
9.2409	4.2542
9.2245	4.2542
9.2081	4.2487
9.1918	4.2407
9.1755	4.2302
9.1593	4.2165
9.1431	4.1983
9.1270	4.1751
9.1110	4.1488
9.0950	4.1213
9.0791	4.0948
9.0632	4.0694
9.0474	4.0453
9.0316	4.0214
9.0159	3.9965
9.0003	3.9707
8.9847	3.9449
8.9691	3.9210
8.9536	3.9008
8.9382	3.8871
8.9228	3.8809
8.9075	3.8833
8.8922	3.8944
8.8770	3.9155
8.8618	3.9465
8.8467	3.9882
8.8316	4.0406
8.8166	4.1028
8.8016	4.1741
8.7867	4.2534
8.7718	4.3411
8.7570	4.4375
8.7423	4.5433
8.7275	4.6563
8.7129	4.7707
8.6982	4.8749
8.6837	4.9554
8.6692	4.9994
8.6547	5.0027
8.6403	4.9717
8.6259	4.9248
8.6116	4.8884
8.5973	4.8872
8.5830	4.9383
8.5688	5.0461
8.5547	5.2019
8.5406	5.3895
8.5266	5.5917
8.5126	5.7980
8.4986	6.0047
8.4847	6.2164
8.4708	6.4402
8.4570	6.6846
8.4432	6.9546
8.4295	7.2530
8.4158	7.5798
8.4022	7.9345
8.3886	8.3163
8.3750	8.7233
8.3615	9.1546
8.3481	9.6074
8.3347	10.079
8.3213	10.567
8.3079	11.068
8.2946	11.582
8.2814	12.106
8.2682	12.635
8.2550	13.164
8.2419	13.682
8.2288	14.178
8.2158	14.639
8.2028	15.056
8.1898	15.420
8.1769	15.731
8.1640	15.985
8.1512	16.185
8.1384	16.333
8.1256	16.433
8.1129	16.494
8.1002	16.532
8.0876	16.569
8.0750	16.627
8.0624	16.728
8.0499	16.879
8.0374	17.077
8.0250	17.300
8.0126	17.524
8.0002	17.717
7.9879	17.855
7.9756	17.922
7.9634	17.916
7.9512	17.845
7.9390	17.733
7.9268	17.608
7.9147	17.500
7.9027	17.428
7.8906	17.402
7.8787	17.410
7.8667	17.432
7.8548	17.443
7.8429	17.428
7.8310	17.386
7.8192	17.328
7.8075	17.274
7.7957	17.241
7.7840	17.237
7.7723	17.252
7.7607	17.266
7.7491	17.253
7.7375	17.193
7.7260	17.071
7.7145	16.882
7.7031	16.632
7.6916	16.329
7.6802	15.985
7.6689	15.611
7.6575	15.222
7.6462	14.833
7.6350	14.459
7.6238	14.115
7.6126	13.815
7.6014	13.564
7.5903	13.365
7.5792	13.211
7.5681	13.094
7.5571	13.004
7.5461	12.927
7.5351	12.852
7.5242	12.770
7.5133	12.670
7.5024	12.547
7.4916	12.396
7.4807	12.220
7.4700	12.021
7.4592	11.807
7.4485	11.586
7.4378	11.362
7.4272	11.139
7.4165	10.913
7.4059	10.676
7.3954	10.420
7.3848	10.134
7.3743	9.8120
7.3639	9.4501
7.3534	9.0528
7.3430	8.6284
7.3326	8.1903
7.3223	7.7526
7.3119	7.3299
7.3016	6.9342
7.2914	6.5728
7.2811	6.2481
7.2709	5.9543
7.2607	5.6805
7.2506	5.4127
7.2404	5.1382
7.2303	4.8493
7.2203	4.5454
7.2102	4.2345
7.2002	3.9285
7.1902	3.6420
7.1803	3.3895
7.1703	3.1830
7.1604	3.0296
7.1506	2.9311
7.1407	2.8818
7.1309	2.8695
7.1211	2.8766
7.1113	2.8844
7.1016	2.8771
7.0919	2.8465
7.0822	2.7925
7.0725	2.7224
7.0629	2.6459
7.0533	2.5730
7.0437	2.5086
7.0341	2.4541
7.0246	2.4070
7.0151	2.3634
7.0056	2.3208
6.9962	2.2789
6.9867	2.2391
6.9773	2.2043
6.9679	2.1761
6.9586	2.1557
6.9493	2.1420
6.9400	2.1325
6.9307	2.1247
6.9214	2.1164
6.9122	2.1055
6.9030	2.0920
6.8938	2.0762
6.8847	2.0594
6.8755	2.0444
6.8664	2.0338
6.8573	2.0290
6.8483	2.0307
6.8393	2.0371
6.8302	2.0451
6.8213	2.0525
6.8123	2.0570
6.8034	2.0594
6.7944	2.0612
6.7855	2.0648
6.7767	2.0721
6.7678	2.0826
6.7590	2.0949
6.7502	2.1067
6.7414	2.1178
6.7327	2.1285
6.7239	2.1403
6.7152	2.1555
6.7065	2.1754
6.6979	2.1993
6.6892	2.2254
6.6806	2.2512
6.6720	2.2760
6.6634	2.3009
6.6549	2.3279
6.6464	2.3611
6.6378	2.4032
6.6294	2.4551
6.6209	2.5143
6.6124	2.5775
6.6040	2.6410
6.5956	2.7025
6.5872	2.7627
6.5789	2.8233
6.5705	2.8868
6.5622	2.9543
6.5539	3.0244
6.5456	3.0940
6.5374	3.1594
6.5292	3.2179
6.5209	3.2707
6.5128	3.3225
6.5046	3.3834
6.4964	3.4653
6.4883	3.5799
6.4802	3.7334
6.4721	3.9231
6.4640	4.1365
6.4560	4.3517
6.4480	4.5445
6.4399	4.6939
6.4320	4.7879
6.4240	4.8277
6.4160	4.8235
6.4081	4.7910
6.4002	4.7434
6.3923	4.6871
6.3844	4.6207
6.3766	4.5364
6.3687	4.4254
6.3609	4.2821
6.3531	4.1078
6.3454	3.9112
6.3376	3.7059
6.3299	3.5089
6.3221	3.3365
6.3144	3.2013
6.3068	3.1108
6.2991	3.0668
6.2914	3.0637
6.2838	3.0907
6.2762	3.1345
6.2686	3.1804
6.2611	3.2179
6.2535	3.2399
6.2460	3.2460
6.2385	3.2396
6.2310	3.2259
6.2235	3.2100
6.2160	3.1956
6.2086	3.1847
6.2011	3.1781
6.1937	3.1776
6.1863	3.1849
6.1790	3.2032
6.1716	3.2332
6.1643	3.2752
6.1570	3.3266
6.1496	3.3832
6.1424	3.4416
6.1351	3.4992
6.1278	3.5567
6.1206	3.6164
6.1134	3.6801
6.1062	3.7502
6.0990	3.8255
6.0918	3.9034
6.0847	3.9806
6.0776	4.0564
6.0704	4.1343
6.0633	4.2210
6.0563	4.3243
6.0492	4.4512
6.0421	4.6037
6.0351	4.7766
6.0281	4.9601
6.0211	5.1432
6.0141	5.3163
6.0071	5.4749
6.0002	5.6196
5.9932	5.7539
5.9863	5.8830
5.9794	6.0090
5.9725	6.1323
5.9657	6.2536
5.9588	6.3758
5.9520	6.5046
5.9451	6.6474
5.9383	6.8106
5.9315	6.9958
5.9247	7.1971
5.9180	7.4026
5.9112	7.6016
5.9045	7.7875
5.8978	7.9606
5.8911	8.1275
5.8844	8.2959
5.8777	8.4695
5.8711	8.6435
5.8644	8.8067
5.8578	8.9450
5.8512	9.0494
5.8446	9.1200
5.8380	9.1660
5.8314	9.2029
5.8249	9.2458
5.8184	9.3031
5.8118	9.3713
5.8053	9.4383
5.7988	9.4880
5.7923	9.5096
5.7859	9.5037
5.7794	9.4826
5.7730	9.4686
5.7666	9.4864
5.7602	9.5541
5.7538	9.6777
5.7474	9.8518
5.7410	10.063
5.7347	10.296
5.7283	10.537
5.7220	10.778
5.7157	11.017
5.7094	11.258
5.7031	11.508
5.6969	11.774
5.6906	12.063
5.6844	12.380
5.6782	12.720
5.6719	13.071
5.6657	13.413
5.6596	13.724
5.6534	13.975
5.6472	14.140
5.6411	14.184
5.6349	14.064
5.6288	13.726
5.6227	13.112
5.6166	12.180
5.6106	10.922
5.6045	9.3843
5.5984	7.6686
5.5924	5.9206
5.5864	4.3063
5.5804	2.9836
5.5744	2.0854
5.5684	1.7072
5.5624	1.9049
5.5564	2.6898
5.5505	4.0221
5.5445	5.8051
5.5386	7.8909
5.5327	10.101
5.5268	12.260
5.5209	14.231
5.5151	15.934
5.5092	17.357
5.5033	18.536
5.4975	19.531
5.4917	20.402
5.4859	21.198
5.4801	21.949
5.4743	22.671
5.4685	23.367
5.4628	24.035
5.4570	24.666
5.4513	25.250
5.4455	25.777
5.4398	26.242
5.4341	26.644
5.4284	26.983
5.4228	27.260
5.4171	27.468
5.4114	27.600
5.4058	27.647
5.4002	27.608
5.3945	27.490
5.3889	27.310
5.3833	27.094
5.3778	26.869
5.3722	26.666
5.3666	26.509
5.3611	26.419
5.3555	26.411
5.3500	26.491
5.3445	26.654
5.3390	26.889
5.3335	27.177
5.3280	27.497
5.3225	27.832
5.3171	28.171
5.3116	28.512
5.3062	28.862
5.3008	29.228
5.2954	29.622
5.2900	30.051
5.2846	30.518
5.2792	31.024
5.2738	31.564
5.2684	32.136
5.2631	32.735
5.2578	33.357
5.2524	34.000
5.2471	34.656
5.2418	35.314
5.2365	35.960
5.2312	36.579
5.2260	37.154
5.2207	37.674
5.2154	38.134
5.2102	38.531
5.2050	38.868
5.1998	39.147
5.1945	39.374
5.1893	39.553
5.1842	39.693
5.1790	39.802
5.1738	39.889
5.1686	39.962
5.1635	40.028
5.1584	40.097
5.1532	40.176
5.1481	40.274
5.1430	40.384
5.1379	40.483
5.1328	40.528
5.1277	40.468
5.1227	40.268
5.1176	39.935
5.1126	39.525
5.1075	39.138
5.1025	38.882
5.0975	38.835
5.0925	39.011
5.0875	39.359
5.0825	39.780
5.0775	40.176
5.0726	40.478
5.0676	40.664
5.0627	40.754
5.0577	40.791
5.0528	40.810
5.0479	40.830
5.0430	40.857
5.0380	40.883
5.0332	40.903
5.0283	40.917
5.0234	40.933
5.0185	40.961
5.0137	41.013
5.0088	41.095
5.0040	41.213
4.9992	41.372
4.9944	41.574
4.9896	41.824
4.9848	42.122
4.9800	42.467
4.9752	42.849
4.9704	43.253
4.9657	43.659
4.9609	44.044
4.9562	44.391
4.9514	44.690
4.9467	44.943
4.9420	45.161
4.9373	45.363
4.9326	45.571
4.9279	45.807
4.9232	46.087
4.9186	46.416
4.9139	46.793
4.9092	47.208
4.9046	47.645
4.9000	48.082
4.8953	48.503
4.8907	48.893
4.8861	49.242
4.8815	49.547
4.8769	49.812
4.8723	50.040
4.8678	50.238
4.8632	50.412
4.8586	50.567
4.8541	50.707
4.8495	50.835
4.8450	50.954
4.8405	51.064
4.8360	51.167
4.8315	51.262
4.8270	51.348
4.8225	51.425
4.8180	51.494
4.8135	51.557
4.8090	51.615
4.8046	51.669
4.8001	51.720
4.7957	51.766
4.7913	51.803
4.7868	51.828
4.7824	51.835
4.7780	51.821
4.7736	51.784
4.7692	51.722
4.7648	51.638
4.7605	51.534
4.7561	51.413
4.7517	51.272
4.7474	51.104
4.7431	50.892
4.7387	50.607
4.7344	50.217
4.7301	49.684
4.7258	48.985
4.7215	48.111
4.7172	47.078
4.7129	45.930
4.7086	44.727
4.7043	43.538
4.7000	42.427
4.6958	41.446
4.6915	40.624
4.6873	39.973
4.6831	39.491
4.6788	39.172
4.6746	39.008
4.6704	39.001
4.6662	39.160
4.6620	39.498
4.6578	40.023
4.6536	40.729
4.6495	41.592
4.6453	42.567
4.6411	43.596
4.6370	44.618
4.6328	45.580
4.6287	46.443
4.6246	47.187
4.6205	47.805
4.6163	48.306
4.6122	48.703
4.6081	49.017
4.6040	49.265
4.6000	49.466
4.5959	49.633
4.5918	49.774
4.5877	49.894
4.5837	49.996
4.5796	50.081
4.5756	50.152
4.5716	50.212
4.5675	50.266
4.5635	50.313
4.5595	50.356
4.5555	50.393
4.5515	50.423
4.5475	50.445
4.5435	50.460
4.5395	50.470
4.5356	50.475
4.5316	50.479
4.5276	50.482
4.5237	50.485
4.5197	50.492
4.5158	50.505
4.5119	50.530
4.5080	50.572
4.5040	50.637
4.5001	50.730
4.4962	50.855
4.4923	51.014
4.4884	51.202
4.4846	51.414
4.4807	51.641
4.4768	51.874
4.4730	52.104
4.4691	52.325
4.4652	52.538
4.4614	52.742
4.4576	52.945
4.4537	53.151
4.4499	53.361
4.4461	53.575
4.4423	53.790
4.4385	53.999
4.4347	54.198
4.4309	54.382
4.4271	54.552
4.4233	54.707
4.4196	54.850
4.4158	54.982
4.4120	55.104
4.4083	55.220
4.4045	55.329
4.4008	55.436
4.3971	55.542
4.3934	55.647
4.3896	55.748
4.3859	55.841
4.3822	55.919
4.3785	55.973
4.3748	55.997
4.3711	55.986
4.3674	55.940
4.3638	55.863
4.3601	55.766
4.3564	55.660
4.3528	55.561
4.3491	55.479
4.3455	55.421
4.3418	55.388
4.3382	55.375
4.3346	55.373
4.3310	55.375
4.3273	55.373
4.3237	55.366
4.3201	55.360
4.3165	55.358
4.3129	55.369
4.3094	55.394
4.3058	55.425
4.3022	55.450
4.2986	55.451
4.2951	55.415
4.2915	55.335
4.2880	55.215
4.2844	55.070
4.2809	54.924
4.2774	54.801
4.2738	54.722
4.2703	54.701
4.2668	54.737
4.2633	54.820
4.2598	54.932
4.2563	55.053
4.2528	55.162
4.2493	55.246
4.2458	55.300
4.2424	55.326
4.2389	55.331
4.2354	55.325
4.2320	55.314
4.2285	55.303
4.2251	55.293
4.2216	55.281
4.2182	55.263
4.2148	55.237
4.2113	55.201
4.2079	55.154
4.2045	55.096
4.2011	55.029
4.1977	54.953
4.1943	54.869
4.1909	54.776
4.1875	54.676
4.1841	54.570
4.1808	54.458
4.1774	54.341
4.1740	54.218
4.1707	54.088
4.1673	53.949
4.1640	53.798
4.1606	53.634
4.1573	53.456
4.1540	53.259
4.1506	53.043
4.1473	52.806
4.1440	52.548
4.1407	52.270
4.1374	51.974
4.1341	51.664
4.1308	51.342
4.1275	51.012
4.1242	50.673
4.1209	50.327
4.1177	49.974
4.1144	49.615
4.1111	49.250
4.1079	48.878
4.1046	48.498
4.1014	48.109
4.0981	47.708
4.0949	47.290
4.0917	46.848
4.0884	46.378
4.0852	45.872
4.0820	45.327
4.0788	44.747
4.0756	44.135
4.0724	43.498
4.0692	42.836
4.0660	42.140
4.0628	41.384
4.0596	40.531
4.0565	39.535
4.0533	38.360
4.0501	36.988
4.0470	35.434
4.0438	33.742
4.0407	31.980
4.0375	30.222
4.0344	28.528
4.0312	26.930
4.0281	25.422
4.0250	23.965
4.0218	22.503
4.0187	20.980
4.0156	19.367
4.0125	17.665
4.0094	15.916
4.0063	14.185
4.0032	12.547
4.0001	11.069
3.9970	9.7994
3.9940	8.7605
3.9909	7.9544
3.9878	7.3673
3.9847	6.9761
3.9817	6.7528
3.9786	6.6683
3.9756	6.6950
3.9725	6.8132
3.9695	7.0124
3.9665	7.2975
3.9634	7.6873
3.9604	8.2109
3.9574	8.8986
3.9544	9.7696
3.9513	10.818
3.9483	12.002
3.9453	13.248
3.9423	14.464
3.9393	15.559
3.9363	16.469
3.9333	17.171
3.9304	17.688
3.9274	18.069
3.9244	18.371
3.9214	18.639
3.9185	18.895
3.9155	19.144
3.9126	19.376
3.9096	19.583
3.9067	19.764
3.9037	19.920
3.9008	20.059
3.8979	20.189
3.8949	20.314
3.8920	20.434
3.8891	20.550
3.8862	20.660
3.8833	20.760
3.8804	20.851
3.8775	20.931
3.8746	21.005
3.8717	21.078
3.8688	21.157
3.8659	21.247
3.8630	21.351
3.8601	21.469
3.8573	21.602
3.8544	21.753
3.8515	21.933
3.8487	22.162
3.8458	22.467
3.8430	22.879
3.8401	23.422
3.8373	24.106
3.8344	24.928
3.8316	25.866
3.8288	26.892
3.8259	27.974
3.8231	29.088
3.8203	30.223
3.8175	31.383
3.8147	32.583
3.8119	33.847
3.8091	35.194
3.8063	36.636
3.8035	38.166
3.8007	39.756
3.7979	41.355
3.7951	42.900
3.7924	44.324
3.7896	45.575
3.7868	46.622
3.7841	47.459
3.7813	48.108
3.7785	48.603
3.7758	48.983
3.7730	49.284
3.7703	49.530
3.7676	49.735
3.7648	49.905
3.7621	50.042
3.7594	50.150
3.7566	50.232
3.7539	50.299
3.7512	50.360
3.7485	50.423
3.7458	50.494
3.7431	50.574
3.7404	50.659
3.7377	50.745
3.7350	50.825
3.7323	50.895
3.7296	50.951
3.7269	50.993
3.7242	51.022
3.7216	51.039
3.7189	51.044
3.7162	51.039
3.7136	51.026
3.7109	51.005
3.7083	50.979
3.7056	50.947
3.7030	50.913
3.7003	50.875
3.6977	50.835
3.6950	50.791
3.6924	50.743
3.6898	50.690
3.6872	50.632
3.6845	50.567
3.6819	50.495
3.6793	50.417
3.6767	50.332
3.6741	50.240
3.6715	50.143
3.6689	50.041
3.6663	49.934
3.6637	49.825
3.6611	49.715
3.6585	49.604
3.6560	49.492
3.6534	49.380
3.6508	49.263
3.6482	49.142
3.6457	49.014
3.6431	48.882
3.6406	48.746
3.6380	48.610
3.6355	48.474
3.6329	48.339
3.6304	48.201
3.6278	48.061
3.6253	47.914
3.6227	47.760
3.6202	47.599
3.6177	47.428
3.6152	47.249
3.6127	47.060
3.6101	46.859
3.6076	46.644
3.6051	46.417
3.6026	46.174
3.6001	45.915
3.5976	45.634
3.5951	45.326
3.5926	44.980
3.5901	44.588
3.5876	44.143
3.5852	43.647
3.5827	43.116
3.5802	42.577
3.5777	42.068
3.5753	41.623
3.5728	41.270
3.5704	41.015
3.5679	40.845
3.5654	40.725
3.5630	40.617
3.5605	40.481
3.5581	40.288
3.5557	40.020
3.5532	39.673
3.5508	39.246
3.5484	38.741
3.5459	38.157
3.5435	37.489
3.5411	36.723
3.5387	35.840
3.5363	34.814
3.5338	33.627
3.5314	32.268
3.5290	30.749
3.5266	29.110
3.5242	27.416
3.5218	25.747
3.5195	24.185
3.5171	22.795
3.5147	21.609
3.5123	20.632
3.5099	19.836
3.5075	19.179
3.5052	18.612
3.5028	18.096
3.5004	17.601
3.4981	17.109
3.4957	16.613
3.4934	16.110
3.4910	15.603
3.4887	15.101
3.4863	14.628
3.4840	14.221
3.4816	13.936
3.4793	13.841
3.4770	14.000
3.4746	14.449
3.4723	15.184
3.4700	16.151
3.4677	17.252
3.4653	18.369
3.4630	19.390
3.4607	20.237
3.4584	20.873
3.4561	21.308
3.4538	21.577
3.4515	21.730
3.4492	21.813
3.4469	21.858
3.4446	21.885
3.4423	21.900
3.4400	21.907
3.4378	21.902
3.4355	21.885
3.4332	21.854
3.4309	21.810
3.4287	21.753
3.4264	21.687
3.4241	21.615
3.4219	21.543
3.4196	21.475
3.4174	21.413
3.4151	21.359
3.4129	21.312
3.4106	21.271
3.4084	21.232
3.4061	21.190
3.4039	21.141
3.4017	21.084
3.3994	21.016
3.3972	20.938
3.3950	20.850
3.3928	20.751
3.3906	20.645
3.3883	20.534
3.3861	20.422
3.3839	20.317
3.3817	20.225
3.3795	20.153
3.3773	20.098
3.3751	20.052
3.3729	20.000
3.3707	19.918
3.3685	19.780
3.3663	19.565
3.3641	19.259
3.3620	18.868
3.3598	18.418
3.3576	17.965
3.3554	17.594
3.3533	17.413
3.3511	17.535
3.3489	18.051
3.3468	19.005
3.3446	20.372
3.3425	22.053
3.3403	23.899
3.3382	25.741
3.3360	27.430
3.3339	28.866
3.3317	30.009
3.3296	30.874
3.3274	31.510
3.3253	31.978
3.3232	32.333
3.3210	32.613
3.3189	32.842
3.3168	33.034
3.3147	33.195
3.3126	33.331
3.3104	33.446
3.3083	33.544
3.3062	33.631
3.3041	33.708
3.3020	33.778
3.2999	33.839
3.2978	33.891
3.2957	33.932
3.2936	33.962
3.2915	33.982
3.2894	33.993
3.2874	34.001
3.2853	34.006
3.2832	34.012
3.2811	34.017
3.2790	34.022
3.2770	34.024
3.2749	34.024
3.2728	34.020
3.2708	34.014
3.2687	34.006
3.2666	33.998
3.2646	33.991
3.2625	33.985
3.2605	33.977
3.2584	33.967
3.2564	33.953
3.2543	33.934
3.2523	33.909
3.2503	33.881
3.2482	33.849
3.2462	33.815
3.2442	33.778
3.2421	33.739
3.2401	33.697
3.2381	33.653
3.2361	33.606
3.2340	33.558
3.2320	33.507
3.2300	33.453
3.2280	33.395
3.2260	33.330
3.2240	33.259
3.2220	33.182
3.2200	33.099
3.2180	33.015
3.2160	32.931
3.2140	32.849
3.2120	32.771
3.2100	32.698
3.2080	32.627
3.2060	32.556
3.2041	32.482
3.2021	32.404
3.2001	32.322
3.1981	32.238
3.1961	32.151
3.1942	32.063
3.1922	31.973
3.1902	31.882
3.1883	31.789
3.1863	31.695
3.1844	31.604
3.1824	31.516
3.1805	31.432
3.1785	31.350
3.1766	31.267
3.1746	31.181
3.1727	31.088
3.1707	30.987
3.1688	30.878
3.1669	30.763
3.1649	30.645
3.1630	30.526
3.1611	30.410
3.1591	30.300
3.1572	30.199
3.1553	30.109
3.1534	30.028
3.1515	29.957
3.1495	29.892
3.1476	29.833
3.1457	29.779
3.1438	29.728
3.1419	29.682
3.1400	29.639
3.1381	29.597
3.1362	29.554
3.1343	29.507
3.1324	29.455
3.1305	29.396
3.1286	29.329
3.1268	29.256
3.1249	29.174
3.1230	29.086
3.1211	28.990
3.1192	28.889
3.1173	28.785
3.1155	28.681
3.1136	28.581
3.1117	28.491
3.1099	28.412
3.1080	28.347
3.1061	28.295
3.1043	28.253
3.1024	28.219
3.1006	28.191
3.0987	28.166
3.0969	28.142
3.0950	28.119
3.0932	28.097
3.0913	28.077
3.0895	28.056
3.0876	28.036
3.0858	28.014
3.0840	27.989
3.0821	27.960
3.0803	27.928
3.0785	27.893
3.0766	27.858
3.0748	27.824
3.0730	27.792
3.0712	27.762
3.0694	27.730
3.0675	27.694
3.0657	27.655
3.0639	27.612
3.0621	27.570
3.0603	27.532
3.0585	27.499
3.0567	27.472
3.0549	27.449
3.0531	27.428
3.0513	27.406
3.0495	27.383
3.0477	27.361
3.0459	27.339
3.0441	27.320
3.0423	27.302
3.0406	27.285
3.0388	27.267
3.0370	27.248
3.0352	27.228
3.0334	27.209
3.0317	27.192
3.0299	27.180
3.0281	27.170
3.0264	27.161
3.0246	27.153
3.0228	27.143
3.0211	27.133
3.0193	27.123
3.0176	27.116
3.0158	27.112
3.0140	27.112
3.0123	27.117
3.0105	27.125
3.0088	27.135
3.0070	27.148
3.0053	27.163
3.0036	27.179
3.0018	27.196
3.0001	27.214
2.9984	27.233
2.9966	27.253
2.9949	27.274
2.9932	27.298
2.9914	27.323
2.9897	27.350
2.9880	27.378
2.9863	27.408
2.9845	27.439
2.9828	27.470
2.9811	27.500
2.9794	27.527
2.9777	27.550
2.9760	27.572
2.9743	27.590
2.9726	27.608
2.9709	27.624
2.9692	27.640
2.9675	27.653
2.9658	27.662
2.9641	27.669
2.9624	27.675
2.9607	27.685
2.9590	27.702
2.9573	27.729
2.9556	27.763
2.9539	27.804
2.9523	27.845
2.9506	27.883
2.9489	27.917
2.9472	27.948
2.9455	27.978
2.9439	28.009
2.9422	28.043
2.9405	28.078
2.9389	28.112
2.9372	28.144
2.9355	28.173
2.9339	28.201
2.9322	28.228
2.9306	28.256
2.9289	28.285
2.9272	28.316
2.9256	28.346
2.9239	28.378
2.9223	28.413
2.9206	28.451
2.9190	28.494
2.9174	28.540
2.9157	28.588
2.9141	28.635
2.9124	28.679
2.9108	28.720
2.9092	28.758
2.9075	28.796
2.9059	28.837
2.9043	28.882
2.9027	28.932
2.9010	28.985
2.8994	29.038
2.8978	29.092
2.8962	29.145
2.8946	29.196
2.8929	29.245
2.8913	29.294
2.8897	29.341
2.8881	29.390
2.8865	29.442
2.8849	29.497
2.8833	29.556
2.8817	29.617
2.8801	29.679
2.8785	29.738
2.8769	29.794
2.8753	29.848
2.8737	29.900
2.8721	29.955
2.8705	30.014
2.8689	30.076
2.8673	30.142
2.8658	30.208
2.8642	30.274
2.8626	30.337
2.8610	30.398
2.8594	30.455
2.8579	30.511
2.8563	30.566
2.8547	30.622
2.8531	30.678
2.8516	30.734
2.8500	30.790
2.8484	30.845
2.8469	30.899
2.8453	30.950
2.8437	30.997
2.8422	31.040
2.8406	31.078
2.8391	31.113
2.8375	31.144
2.8360	31.173
2.8344	31.202
2.8329	31.230
2.8313	31.257
2.8298	31.279
2.8282	31.294
2.8267	31.300
2.8252	31.295
2.8236	31.280
2.8221	31.258
2.8205	31.232
2.8190	31.204
2.8175	31.176
2.8159	31.145
2.8144	31.106
2.8129	31.052
2.8114	30.978
2.8098	30.882
2.8083	30.766
2.8068	30.638
2.8053	30.505
2.8038	30.373
2.8022	30.241
2.8007	30.101
2.7992	29.939
2.7977	29.739
2.7962	29.490
2.7947	29.188
2.7932	28.838
2.7917	28.449
2.7902	28.035
2.7887	27.607
2.7872	27.173
2.7857	26.735
2.7842	26.293
2.7827	25.846
2.7812	25.393
2.7797	24.938
2.7782	24.487
2.7767	24.049
2.7752	23.630
2.7738	23.234
2.7723	22.859
2.7708	22.498
2.7693	22.146
2.7678	21.800
2.7664	21.465
2.7649	21.155
2.7634	20.887
2.7619	20.681
2.7605	20.550
2.7590	20.501
2.7575	20.535
2.7561	20.649
2.7546	20.835
2.7531	21.085
2.7517	21.384
2.7502	21.711
2.7488	22.041
2.7473	22.353
2.7458	22.634
2.7444	22.892
2.7429	23.149
2.7415	23.440
2.7400	23.801
2.7386	24.262
2.7371	24.832
2.7357	25.503
2.7343	26.250
2.7328	27.043
2.7314	27.851
2.7299	28.659
2.7285	29.470
2.7271	30.308
2.7256	31.214
2.7242	32.231
2.7228	33.388
2.7213	34.683
2.7199	36.078
2.7185	37.506
2.7171	38.889
2.7156	40.160
2.7142	41.292
2.7128	42.293
2.7114	43.203
2.7100	44.076
2.7085	44.957
2.7071	45.872
2.7057	46.825
2.7043	47.806
2.7029	48.802
2.7015	49.800
2.7001	50.806
2.6987	51.838
2.6973	52.924
2.6959	54.091
2.6945	55.354
2.6931	56.707
2.6917	58.113
2.6903	59.512
2.6889	60.837
2.6875	62.026
2.6861	63.040
2.6847	63.863
2.6833	64.507
2.6819	65.008
2.6805	65.415
2.6791	65.767
2.6778	66.088
2.6764	66.378
2.6750	66.625
2.6736	66.806
2.6722	66.915
2.6709	66.979
2.6695	67.057
2.6681	67.207
2.6667	67.472
2.6654	67.864
2.6640	68.352
2.6626	68.869
2.6613	69.346
2.6599	69.733
2.6585	70.015
2.6572	70.202
2.6558	70.327
2.6545	70.428
2.6531	70.535
2.6517	70.653
2.6504	70.777
2.6490	70.896
2.6477	71.004
2.6463	71.101
2.6450	71.196
2.6436	71.299
2.6423	71.412
2.6409	71.524
2.6396	71.614
2.6382	71.649
2.6369	71.606
2.6356	71.485
2.6342	71.306
2.6329	71.116
2.6315	70.970
2.6302	70.916
2.6289	70.971
2.6275	71.106
2.6262	71.264
2.6249	71.384
2.6236	71.418
2.6222	71.356
2.6209	71.238
2.6196	71.132
2.6183	71.099
2.6169	71.165
2.6156	71.318
2.6143	71.502
2.6130	71.642
2.6117	71.675
2.6103	71.590
2.6090	71.425
2.6077	71.253
2.6064	71.151
2.6051	71.168
2.6038	71.294
2.6025	71.452
2.6012	71.540
2.5999	71.486
2.5986	71.284
2.5973	70.999
2.5960	70.740
2.5947	70.614
2.5934	70.670
2.5921	70.868
2.5908	71.113
2.5895	71.307
2.5882	71.391
2.5869	71.365
2.5856	71.281
2.5843	71.209
2.5830	71.200
2.5817	71.256
2.5805	71.345
2.5792	71.421
2.5779	71.451
2.5766	71.426
2.5753	71.362
2.5741	71.288
2.5728	71.232
2.5715	71.200
2.5702	71.170
2.5690	71.115
2.5677	71.006
2.5664	70.833
2.5651	70.609
2.5639	70.369
2.5626	70.150
2.5613	69.971
2.5601	69.825
2.5588	69.678
2.5575	69.490
2.5563	69.225
2.5550	68.871
2.5538	68.442
2.5525	67.965
2.5513	67.470
2.5500	66.978
2.5487	66.497
2.5475	66.028
2.5462	65.575
2.5450	65.141
2.5437	64.740
2.5425	64.384
2.5413	64.085
2.5400	63.849
2.5388	63.679
2.5375	63.577
2.5363	63.546
2.5350	63.585
2.5338	63.691
2.5326	63.859
2.5313	64.081
2.5301	64.342
2.5289	64.630
2.5276	64.931
2.5264	65.234
2.5252	65.529
2.5239	65.809
2.5227	66.067
2.5215	66.301
2.5202	66.509
2.5190	66.692
2.5178	66.851
2.5166	66.991
2.5154	67.113
2.5141	67.220
2.5129	67.313
2.5117	67.394
2.5105	67.465
2.5093	67.527
2.5081	67.582
2.5068	67.633
2.5056	67.681
2.5044	67.727
2.5032	67.771
2.5020	67.812
2.5008	67.849
2.4996	67.884
2.4984	67.916
2.4972	67.948
2.4960	67.983
2.4948	68.023
2.4936	68.073
2.4924	68.132
2.4912	68.201
2.4900	68.279
2.4888	68.363
2.4876	68.453
2.4864	68.548
2.4852	68.647
2.4840	68.751
2.4828	68.860
2.4816	68.974
2.4805	69.093
2.4793	69.220
2.4781	69.353
2.4769	69.494
2.4757	69.642
2.4745	69.794
2.4734	69.947
2.4722	70.097
2.4710	70.244
2.4698	70.388
2.4686	70.532
2.4675	70.679
2.4663	70.828
2.4651	70.978
2.4640	71.124
2.4628	71.261
2.4616	71.387
2.4604	71.500
2.4593	71.599
2.4581	71.689
2.4569	71.770
2.4558	71.846
2.4546	71.919
2.4535	71.989
2.4523	72.058
2.4511	72.126
2.4500	72.192
2.4488	72.257
2.4477	72.322
2.4465	72.389
2.4454	72.459
2.4442	72.532
2.4431	72.606
2.4419	72.679
2.4408	72.750
2.4396	72.816
2.4385	72.880
2.4373	72.941
2.4362	73.004
2.4350	73.068
2.4339	73.135
2.4327	73.205
2.4316	73.280
2.4305	73.358
2.4293	73.439
2.4282	73.520
2.4270	73.599
2.4259	73.674
2.4248	73.746
2.4236	73.813
2.4225	73.879
2.4214	73.943
2.4202	74.006
2.4191	74.068
2.4180	74.127
2.4169	74.185
2.4157	74.240
2.4146	74.293
2.4135	74.344
2.4124	74.392
2.4112	74.437
2.4101	74.476
2.4090	74.511
2.4079	74.541
2.4068	74.568
2.4056	74.594
2.4045	74.618
2.4034	74.642
2.4023	74.664
2.4012	74.683
2.4001	74.699
2.3990	74.711
2.3979	74.723
2.3967	74.738
2.3956	74.759
2.3945	74.788
2.3934	74.823
2.3923	74.861
2.3912	74.896
2.3901	74.924
2.3890	74.942
2.3879	74.950
2.3868	74.949
2.3857	74.943
2.3846	74.933
2.3835	74.921
2.3824	74.908
2.3813	74.892
2.3802	74.873
2.3791	74.850
2.3781	74.825
2.3770	74.798
2.3759	74.769
2.3748	74.739
2.3737	74.705
2.3726	74.664
2.3715	74.615
2.3704	74.553
2.3694	74.477
2.3683	74.382
2.3672	74.270
2.3661	74.138
2.3650	73.989
2.3640	73.823
2.3629	73.642
2.3618	73.449
2.3607	73.245
2.3597	73.034
2.3586	72.817
2.3575	72.597
2.3564	72.374
2.3554	72.153
2.3543	71.934
2.3532	71.718
2.3522	71.510
2.3511	71.310
2.3500	71.123
2.3490	70.951
2.3479	70.796
2.3468	70.660
2.3458	70.544
2.3447	70.450
2.3436	70.380
2.3426	70.336
2.3415	70.321
2.3405	70.332
2.3394	70.368
2.3384	70.425
2.3373	70.498
2.3363	70.586
2.3352	70.686
2.3342	70.799
2.3331	70.926
2.3321	71.063
2.3310	71.208
2.3300	71.355
2.3289	71.502
2.3279	71.648
2.3268	71.793
2.3258	71.938
2.3247	72.080
2.3237	72.218
2.3226	72.346
2.3216	72.462
2.3206	72.565
2.3195	72.656
2.3185	72.740
2.3175	72.819
2.3164	72.896
2.3154	72.968
2.3144	73.035
2.3133	73.096
2.3123	73.151
2.3113	73.201
2.3102	73.246
2.3092	73.288
2.3082	73.326
2.3071	73.362
2.3061	73.396
2.3051	73.433
2.3041	73.475
2.3030	73.522
2.3020	73.577
2.3010	73.639
2.3000	73.703
2.2990	73.766
2.2979	73.825
2.2969	73.878
2.2959	73.926
2.2949	73.973
2.2939	74.025
2.2929	74.086
2.2918	74.157
2.2908	74.237
2.2898	74.321
2.2888	74.405
2.2878	74.484
2.2868	74.558
2.2858	74.627
2.2848	74.693
2.2838	74.761
2.2828	74.830
2.2818	74.904
2.2808	74.980
2.2798	75.057
2.2787	75.134
2.2777	75.207
2.2767	75.276
2.2757	75.337
2.2747	75.391
2.2738	75.438
2.2728	75.481
2.2718	75.522
2.2708	75.566
2.2698	75.613
2.2688	75.664
2.2678	75.719
2.2668	75.771
2.2658	75.819
2.2648	75.859
2.2638	75.891
2.2628	75.914
2.2618	75.933
2.2609	75.949
2.2599	75.967
2.2589	75.989
2.2579	76.014
2.2569	76.043
2.2559	76.076
2.2550	76.110
2.2540	76.144
2.2530	76.176
2.2520	76.203
2.2510	76.224
2.2501	76.238
2.2491	76.246
2.2481	76.248
2.2471	76.248
2.2462	76.250
2.2452	76.257
2.2442	76.271
2.2433	76.292
2.2423	76.316
2.2413	76.339
2.2403	76.356
2.2394	76.365
2.2384	76.366
2.2374	76.357
2.2365	76.341
2.2355	76.320
2.2345	76.296
2.2336	76.271
2.2326	76.247
2.2317	76.223
2.2307	76.199
2.2297	76.173
2.2288	76.142
2.2278	76.105
2.2269	76.065
2.2259	76.023
2.2250	75.981
2.2240	75.942
2.2231	75.905
2.2221	75.872
2.2211	75.843
2.2202	75.817
2.2192	75.797
2.2183	75.782
2.2173	75.769
2.2164	75.757
2.2155	75.741
2.2145	75.718
2.2136	75.689
2.2126	75.655
2.2117	75.621
2.2107	75.592
2.2098	75.572
2.2088	75.565
2.2079	75.572
2.2070	75.592
2.2060	75.622
2.2051	75.663
2.2041	75.711
2.2032	75.766
2.2023	75.825
2.2013	75.883
2.2004	75.936
2.1995	75.982
2.1985	76.020
2.1976	76.052
2.1967	76.082
2.1957	76.117
2.1948	76.157
2.1939	76.205
2.1930	76.258
2.1920	76.312
2.1911	76.362
2.1902	76.409
2.1893	76.451
2.1883	76.492
2.1874	76.534
2.1865	76.579
2.1856	76.626
2.1846	76.675
2.1837	76.723
2.1828	76.770
2.1819	76.814
2.1810	76.856
2.1800	76.896
2.1791	76.935
2.1782	76.973
2.1773	77.010
2.1764	77.047
2.1755	77.081
2.1746	77.112
2.1736	77.139
2.1727	77.161
2.1718	77.180
2.1709	77.198
2.1700	77.219
2.1691	77.245
2.1682	77.275
2.1673	77.305
2.1664	77.333
2.1655	77.354
2.1646	77.365
2.1637	77.369
2.1628	77.370
2.1619	77.372
2.1610	77.378
2.1601	77.388
2.1592	77.402
2.1583	77.417
2.1574	77.432
2.1565	77.447
2.1556	77.461
2.1547	77.475
2.1538	77.489
2.1529	77.502
2.1520	77.514
2.1511	77.523
2.1502	77.530
2.1493	77.537
2.1484	77.546
2.1475	77.561
2.1466	77.582
2.1458	77.608
2.1449	77.637
2.1440	77.663
2.1431	77.682
2.1422	77.694
2.1413	77.699
2.1404	77.703
2.1396	77.709
2.1387	77.720
2.1378	77.737
2.1369	77.757
2.1360	77.773
2.1352	77.782
2.1343	77.783
2.1334	77.776
2.1325	77.767
2.1316	77.760
2.1308	77.758
2.1299	77.763
2.1290	77.773
2.1281	77.784
2.1273	77.792
2.1264	77.797
2.1255	77.797
2.1247	77.791
2.1238	77.781
2.1229	77.768
2.1220	77.754
2.1212	77.741
2.1203	77.733
2.1194	77.732
2.1186	77.737
2.1177	77.746
2.1168	77.756
2.1160	77.766
2.1151	77.773
2.1143	77.777
2.1134	77.779
2.1125	77.778
2.1117	77.776
2.1108	77.773
2.1100	77.770
2.1091	77.772
2.1082	77.779
2.1074	77.793
2.1065	77.811
2.1057	77.830
2.1048	77.847
2.1040	77.858
2.1031	77.863
2.1023	77.865
2.1014	77.866
2.1005	77.867
2.0997	77.869
2.0988	77.872
2.0980	77.874
2.0971	77.874
2.0963	77.875
2.0955	77.876
2.0946	77.879
2.0938	77.885
2.0929	77.894
2.0921	77.907
2.0912	77.921
2.0904	77.940
2.0895	77.961
2.0887	77.986
2.0879	78.013
2.0870	78.040
2.0862	78.061
2.0853	78.074
2.0845	78.074
2.0837	78.063
2.0828	78.050
2.0820	78.028
2.0812	78.033
2.0803	78.063
2.0795	78.092
2.0760	78.092
2.0720	78.437
2.0680	78.832
2.0640	78.437
2.0600	77.678
2.0560	78.182
2.0520	78.089
2.0480	77.814
2.0440	77.907
2.0400	77.934
2.0360	77.682
2.0320	77.590
2.0280	77.136
2.0240	76.867
2.0200	77.252
2.0160	76.977
2.0120	76.793
2.0080	76.460
2.0040	76.237
2.0000	75.624
1.9960	74.953
1.9920	74.936
1.9880	75.247
1.9840	75.000
1.9800	74.434
1.9760	74.562
1.9720	74.317
1.9680	73.892
1.9640	73.684
1.9600	73.495
1.9560	73.369
1.9520	73.757
1.9480	73.576
1.9440	73.150
1.9400	72.788
1.9360	72.306
1.9320	72.164
1.9280	71.992
1.9240	72.404
1.9200	72.531
1.9160	72.162
1.9120	71.880
1.9080	72.751
1.9040	73.731
1.9000	74.551
1.8960	75.380
1.8920	75.555
1.8880	75.027
1.8840	74.773
1.8800	74.686
1.8760	74.991
1.8720	74.965
1.8680	74.900
1.8640	76.009
1.8600	77.604
1.8560	78.430
1.8520	78.750
1.8480	77.916
1.8440	76.764
1.8400	76.340
1.8360	76.609
1.8320	77.267
1.8280	77.801
1.8240	77.654
1.8200	77.419
1.8160	76.673
1.8120	76.488
1.8080	76.793
1.8040	76.786
1.8000	76.352
1.7960	76.175
1.7920	76.288
1.7880	75.881
1.7840	76.072
1.7800	76.111
1.7760	76.087
1.7720	76.215
1.7680	76.215
1.7640	76.023
1.7600	75.959
1.7560	75.808
1.7520	75.808
1.7480	75.706
1.7440	75.769
1.7400	76.087
1.7360	75.871
1.7320	75.822
1.7280	76.013
1.7240	75.988
1.7200	76.116
1.7160	76.334
1.7120	76.205
1.7080	75.733
1.7040	76.126
1.7000	76.111
1.6960	76.047
1.6920	76.199
1.6880	76.111
1.6840	75.857
1.6800	75.758
1.6760	75.695
1.6720	75.631
1.6680	75.417
1.6640	75.378
1.6600	75.782
1.6560	75.466
1.6520	75.441
1.6480	75.340
1.6440	75.428
1.6400	75.567
1.6360	75.441
1.6320	75.290
1.6280	75.758
1.6240	75.302
1.6200	74.849
1.6160	74.724
1.6120	74.849
1.6080	74.937
1.6040	74.849
1.6000	74.812
1.5960	74.812
1.5920	75.340
1.5880	75.733
1.5840	75.403
1.5800	75.340
1.5760	75.340
1.5720	74.886
1.5680	74.710
1.5640	74.772
1.5600	74.430
1.5560	74.636
1.5520	74.756
1.5480	75.063
1.5440	74.756
1.5400	74.683
1.5360	74.410
1.5320	74.384
1.5280	74.410
1.5240	74.338
1.5200	74.033
1.5160	74.254
1.5120	73.655
1.5080	72.974
1.5040	72.237
1.5000	72.191
1.4960	72.668
1.4920	73.388
1.4880	74.249
1.4840	73.390
1.4800	73.434
1.4760	73.522
1.4720	73.461
1.4680	73.338
1.4640	73.261
1.4600	73.338
1.4560	73.200
1.4520	73.079
1.4480	72.964
1.4440	72.460
1.4400	72.089
1.4360	72.002
1.4320	72.197
1.4280	72.360
1.4240	72.360
1.4200	72.037
1.4160	71.585
1.4120	70.768
1.4080	70.273
1.4040	70.301
1.4000	70.693
1.3960	71.407
1.3920	71.859
1.3880	72.131
1.3840	72.160
1.3800	72.335
1.3760	72.514
1.3720	73.800
1.3680	74.341
1.3640	73.412
1.3600	71.822
1.3560	71.765
1.3520	73.295
1.3480	74.117
1.3440	74.135
1.3400	73.062
1.3360	72.401
1.3320	71.407
1.3280	71.320
1.3240	71.700
1.3200	72.055
1.3160	72.262
1.3120	72.108
1.3080	71.930
1.3040	71.812
1.3000	71.607
1.2960	71.433
1.2920	71.434
1.2880	71.377
1.2840	71.027
1.2800	70.823
1.2760	70.587
1.2720	70.438
1.2680	70.437
1.2640	70.673
1.2600	70.592
1.2560	71.389
1.2520	71.429
1.2480	71.520
1.2440	71.340
1.2400	71.461
1.2360	71.311
1.2320	71.350
1.2280	70.592
1.2240	70.602
1.2200	70.572
1.2160	70.562
1.2120	70.718
1.2080	71.078
1.2040	71.441
1.2000	70.579
1.1960	69.788
1.1920	69.499
1.1880	69.384
1.1840	69.213
1.1800	69.099
1.1760	68.985
1.1720	68.872
1.1680	68.576
1.1640	68.376
1.1600	68.092
1.1560	67.504
1.1520	67.526
1.1480	67.660
1.1440	67.652
1.1400	68.012
1.1360	68.603
1.1320	68.149
1.1280	68.310
1.1240	67.938
1.1200	68.010
1.1160	68.181
1.1120	67.882
1.1080	67.826
1.1040	67.503
1.1000	67.292
1.0960	66.902
1.0920	67.036
1.0880	66.556
1.0840	66.768
1.0800	66.868
1.0760	66.946
1.0720	66.779
1.0680	66.734
1.0640	66.370
1.0600	65.773
1.0560	65.685
1.0520	65.675
1.0480	65.783
1.0440	65.489
1.0400	65.489
1.0360	65.596
1.0320	65.803
1.0280	65.321
1.0240	65.021
1.0200	64.819
1.0160	64.837
1.0120	65.112
1.0080	64.790
1.0040	64.489
1.0000	64.172
0.99600	64.259
0.99200	64.419
0.98800	64.224
0.98400	63.712
0.98000	63.435
0.97600	63.519
0.97200	63.307
0.96800	63.359
0.96400	63.130
0.96000	63.182
0.95600	63.198
0.95200	62.995
0.94800	62.664
0.94400	62.834
0.94000	62.466
0.93600	62.642
0.93200	62.289
0.92800	62.135
0.92400	62.034
0.92000	62.135
0.91600	61.922
0.91200	61.671
0.90800	61.482
0.90400	61.735
0.90000	61.433
0.89600	61.244
0.89200	61.206
0.88800	61.118
0.88400	60.971
0.88000	61.135
0.87600	60.731
0.87200	60.604
0.86800	60.589
0.86400	60.791
0.86000	60.743
0.85600	60.424
0.85200	60.487
0.84800	59.898
0.84400	60.156
0.84000	59.998
0.83600	60.089
0.83200	59.959
0.82800	59.869
0.82400	59.799
0.82000	59.600
0.81600	59.363
0.81200	59.629
0.80800	59.353
0.80400	58.924
0.80000	58.867
0.79900	58.867
0.79800	58.867
0.79700	59.233
0.79600	59.045
0.79500	58.867
0.79400	58.814
0.79300	58.668
0.79200	58.519
0.79100	58.807
0.79000	58.582
0.78900	58.482
0.78800	58.495
0.78700	58.298
0.78600	58.448
0.78500	58.352
0.78400	58.352
0.78300	58.501
0.78200	58.298
0.78100	58.285
0.78000	58.252
0.77900	58.111
0.77800	57.921
0.77700	57.719
0.77600	57.614
0.77500	57.595
0.77400	57.655
0.77300	57.719
0.77200	57.865
0.77100	57.578
0.77000	57.482
0.76900	57.672
0.76800	57.418
0.76700	57.478
0.76600	57.569
0.76500	57.188
0.76400	57.144
0.76300	57.188
0.76200	56.884
0.76100	57.114
0.76000	57.040
0.75900	56.950
0.75800	57.002
0.75700	57.054
0.75600	56.853
0.75500	56.608
0.75400	56.853
0.75300	56.712
0.75200	56.415
0.75100	56.267
0.75000	56.125
0.74900	56.125
0.74800	55.972
0.74700	56.609
0.74600	56.382
0.74500	56.312
0.74400	56.318
0.74300	56.022
0.74200	55.869
0.74100	56.279
0.74000	56.233
0.73900	56.022
0.73800	55.925
0.73700	55.783
0.73600	55.635
0.73500	55.539
0.73400	55.305
0.73300	55.640
0.73200	55.799
0.73100	55.502
0.73000	55.594
0.72900	55.359
0.72800	55.119
0.72700	55.303
0.72600	54.766
0.72500	55.303
0.72400	55.110
0.72300	54.712
0.72200	54.327
0.72100	54.575
0.72000	54.575
0.71900	54.575
0.71800	54.678
0.71700	54.337
0.71600	54.097
0.71500	54.337
0.71400	54.590
0.71300	54.442
0.71200	54.239
0.71100	53.750
0.71000	53.846
0.70900	53.555
0.70800	53.409
0.70700	54.043
0.70600	54.189
0.70500	54.194
0.70400	54.194
0.70300	53.460
0.70200	53.607
0.70100	53.458
0.70000	53.312
0.69900	54.722
0.69800	54.563
0.69700	54.449
0.69600	53.982
0.69500	53.728
0.69400	53.425
0.69300	53.124
0.69200	53.024
0.69100	53.174
0.69000	53.024
0.68900	53.275
0.68800	53.224
0.68700	53.074
0.68600	53.174
0.68500	52.924
0.68400	52.624
0.68300	52.824
0.68200	52.974
0.68100	52.572
0.68000	52.423
0.67900	51.976
0.67800	51.976
0.67700	52.571
0.67600	52.270
0.67500	52.122
0.67400	52.071
0.67300	51.720
0.67200	51.676
0.67100	52.171
0.67000	52.021
0.66900	51.474
0.66800	51.765
0.66700	51.863
0.66600	51.664
0.66500	51.520
0.66400	51.322
0.66300	51.617
0.66200	51.512
0.66100	51.362
0.66000	51.014
0.65900	51.159
0.65800	51.408
0.65700	51.251
0.65600	50.951
0.65500	50.656
0.65400	50.850
0.65300	50.902
0.65200	50.844
0.65100	50.690
0.65000	50.545
0.64900	50.455
0.64800	50.455
0.64700	50.498
0.64600	50.344
0.64500	50.296
0.64400	50.253
0.64300	50.253
0.64200	50.349
0.64100	50.243
0.64000	50.243
0.63900	50.243
0.63800	49.836
0.63700	49.743
0.63600	49.595
0.63500	49.648
0.63400	49.695
0.63300	49.695
0.63200	49.642
0.63100	49.245
0.63000	49.527
0.62900	49.426
0.62800	49.223
0.62700	49.082
0.62600	48.880
0.62500	49.082
0.62400	49.129
0.62300	49.012
0.62200	48.911
0.62100	48.763
0.62000	48.809
0.61900	48.606
0.61800	48.551
0.61700	48.357
0.61600	48.412
0.61500	48.319
0.61400	47.813
0.61300	47.925
0.61200	47.970
0.61100	47.768
0.61000	47.768
0.60900	47.768
0.60800	47.768
0.60700	47.611
0.60600	47.600
0.60500	47.443
0.60400	47.341
0.60300	47.227
0.60200	47.104
0.60100	47.080
0.60000	46.842
0.59900	46.593
0.59800	46.978
0.59700	46.760
0.59600	46.838
0.59500	46.871
0.59400	46.780
0.59300	46.516
0.59200	46.735
0.59100	46.735
0.59000	46.497
0.58900	46.264
0.58800	46.412
0.58700	46.219
0.58600	46.116
0.58500	46.085
0.58400	45.910
0.58300	46.043
0.58200	45.571
0.58100	45.792
0.58000	45.806
0.57900	45.792
0.57800	45.600
0.57700	45.703
0.57600	45.600
0.57500	45.600
0.57400	45.465
0.57300	45.426
0.57200	44.979
0.57100	45.065
0.57000	45.049
0.56900	44.803
0.56800	44.558
0.56700	44.355
0.56600	44.499
0.56500	44.397
0.56400	44.093
0.56300	44.051
0.56200	43.949
0.56100	43.830
0.56000	43.548
0.55900	42.164
0.55800	43.518
0.55700	43.205
0.55600	42.873
0.55500	42.525
0.55400	42.525
0.55300	42.369
0.55200	42.326
0.55100	42.267
0.55000	42.596
0.54900	43.091
0.54800	42.793
0.54700	42.221
0.54600	42.555
0.54500	42.537
0.54400	42.007
0.54300	42.200
0.54200	41.843
0.54100	42.076
0.54000	41.903
0.53900	41.826
0.53800	41.684
0.53700	41.595
0.53600	41.441
0.53500	41.043
0.53400	40.959
0.53300	41.105
0.53200	41.249
0.53100	41.189
0.53000	40.906
0.52900	40.845
0.52800	40.883
0.52700	40.769
0.52600	40.558
0.52500	40.609
0.52400	40.697
0.52300	40.027
0.52200	39.496
0.52100	39.371
0.52000	39.652
0.51900	40.136
0.51800	39.705
0.51700	39.471
0.51600	39.652
0.51500	39.002
0.51400	38.665
0.51300	39.002
0.51200	39.318
0.51100	38.806
0.51000	38.823
0.50900	39.092
0.50800	38.710
0.50700	38.512
0.50600	38.206
0.50500	38.019
0.50400	37.726
0.50300	38.011
0.50200	38.311
0.50100	37.624
0.50000	37.658
0.49900	37.726
0.49800	37.392
0.49700	37.330
0.49600	37.098
0.49500	37.297
0.49400	37.095
0.49300	36.734
0.49200	36.865
0.49100	36.901
0.49000	36.803
0.48900	36.736
0.48800	36.506
0.48700	36.244
0.48600	36.180
0.48500	36.082
0.48400	36.080
0.48300	36.113
0.48200	36.341
0.48100	36.210
0.48000	36.113
0.47900	35.723
0.47800	35.754
0.47700	35.655
0.47600	35.422
0.47500	35.292
0.47400	35.162
0.47300	35.068
0.47200	35.068
0.47100	35.033
0.47000	34.971
0.46900	34.783
0.46800	34.881
0.46700	34.647
0.46600	34.586
0.46500	34.396
0.46400	34.398
0.46300	34.669
0.46200	34.255
0.46100	34.187
0.46000	34.129
0.45900	34.021
0.45800	34.134
0.45700	33.948
0.45600	33.926
0.45500	33.353
0.45400	33.896
0.45300	33.381
0.45200	33.235
0.45100	33.076
0.45000	33.324
0.44900	33.294
0.44800	33.089
0.44700	33.224
0.44600	32.940
0.44500	32.897
0.44400	32.483
0.44300	32.369
0.44200	32.541
0.44100	32.413
0.44000	32.528
0.43900	32.250
0.43800	32.316
0.43700	32.042
0.43600	31.630
0.43500	31.523
0.43400	31.475
0.43300	31.530
0.43200	31.368
0.43100	31.371
0.43000	31.215
0.42900	31.169
0.42800	30.738
0.42700	30.876
0.42600	30.823
0.42500	30.322
0.42400	30.084
0.42300	29.904
0.42200	29.880
0.42100	29.561
0.42000	30.268
0.41900	30.082
0.41800	29.690
0.41700	29.378
0.41600	29.690
0.41500	29.690
0.41400	29.607
0.41300	29.165
0.41200	29.458
0.41100	29.366
0.41000	29.117
0.40900	28.757
0.40800	28.748
0.40700	28.818
0.40600	28.715
0.40500	28.526
0.40400	28.441
0.40300	28.237
0.40200	28.426
0.40100	28.088
0.40000	28.075
0.0000	
