Name: Limestone
Type:  Rocks
Class:  Sedimentary
Subclass: Limestone
Particle Size:  0 - 75 Micrometers
Sample No.:  limestone.3
Owner:  JHU
Wavelength Range:  All
Origin:  Sample No. 381,  The Hunt and Salisbury Collection at the U.S. 
Geological Survey, Denver, Co.
Description: This is a very clean fine-grained to microcrystalline 
carbonate with little, if any, trace of clay.  There is, however, a trace 
of opaque material present.



Measurement:  Directional (10 Degree) Hemispherical Reflectance
First Column:  X
Second Column:  Y  
X Units:  Wavelength (micrometers)
Y Units:  Reflectance (percent)
First X Value:  14.0112
Last X Value:  0.4
Number of X Values:  2844
Additional Information:  None

14.983	16.346
14.940	16.823
14.897	17.513
14.854	18.318
14.812	18.417
14.770	18.695
14.728	18.601
14.686	18.636
14.645	18.839
14.603	18.979
14.562	19.090
14.521	19.636
14.481	19.643
14.441	19.521
14.400	19.747
14.361	19.862
14.321	19.790
14.281	19.588
14.242	18.971
14.203	18.468
14.164	18.140
14.126	17.566
14.087	16.413
14.049	14.944
14.011	13.483
13.973	11.965
13.936	10.290
13.899	8.5604
13.861	6.6545
13.824	4.8429
13.788	3.3514
13.751	2.2829
13.715	1.6923
13.679	1.3953
13.643	1.3361
13.607	2.1626
13.571	4.0867
13.536	6.6500
13.500	9.5316
13.465	12.310
13.430	14.804
13.396	17.165
13.361	19.405
13.327	21.564
13.293	23.550
13.259	25.307
13.225	26.926
13.191	28.384
13.158	29.599
13.124	30.681
13.091	31.665
13.058	32.579
13.026	33.318
12.993	34.005
12.960	34.588
12.928	34.944
12.896	35.202
12.864	35.440
12.832	35.632
12.800	35.884
12.769	36.159
12.737	36.453
12.706	36.789
12.675	37.126
12.644	37.377
12.614	37.628
12.583	37.792
12.552	37.919
12.522	38.018
12.492	38.230
12.462	38.487
12.432	38.776
12.402	39.035
12.373	39.189
12.343	39.256
12.314	39.381
12.285	39.458
12.256	39.510
12.227	39.548
12.198	39.577
12.169	39.514
12.141	39.437
12.113	39.300
12.084	39.232
12.056	39.112
12.028	38.910
12.000	38.666
11.973	38.396
11.945	37.976
11.918	37.531
11.890	36.877
11.863	35.966
11.836	34.476
11.809	31.888
11.782	27.210
11.755	19.907
11.729	13.013
11.702	15.508
11.676	22.603
11.650	24.542
11.624	23.267
11.598	20.895
11.572	17.934
11.546	14.566
11.520	11.289
11.495	8.4093
11.469	6.4577
11.444	5.4603
11.419	5.1919
11.394	5.2654
11.369	5.7172
11.344	6.2846
11.319	6.9103
11.294	7.6288
11.270	8.6807
11.245	10.302
11.221	12.775
11.197	16.371
11.173	21.232
11.149	26.406
11.125	29.902
11.101	30.983
11.077	31.107
11.054	31.152
11.030	31.259
11.007	31.370
10.983	31.457
10.960	31.536
10.937	31.704
10.914	31.907
10.891	32.087
10.868	32.227
10.846	32.382
10.823	32.511
10.800	32.636
10.778	32.780
10.755	33.036
10.733	33.269
10.711	33.437
10.689	33.520
10.667	33.530
10.645	33.495
10.623	33.453
10.602	33.454
10.580	33.494
10.558	33.510
10.537	33.629
10.516	33.757
10.494	33.905
10.473	34.105
10.452	34.247
10.431	34.296
10.410	34.206
10.389	33.961
10.368	33.588
10.348	33.240
10.327	32.946
10.306	32.577
10.286	32.250
10.266	31.990
10.245	31.710
10.225	31.462
10.205	31.254
10.185	30.989
10.165	30.669
10.145	30.316
10.125	29.955
10.106	29.521
10.086	29.084
10.066	28.672
10.047	28.413
10.027	28.274
10.008	28.070
9.9887	27.805
9.9695	27.434
9.9504	26.992
9.9313	26.686
9.9123	26.511
9.8934	26.305
9.8746	26.137
9.8558	26.048
9.8371	25.941
9.8185	25.826
9.7999	25.505
9.7814	25.003
9.7630	24.541
9.7447	24.228
9.7264	24.021
9.7082	23.885
9.6900	23.710
9.6719	23.610
9.6539	23.671
9.6360	23.777
9.6181	23.905
9.6003	24.053
9.5825	24.203
9.5649	24.557
9.5472	25.125
9.5297	25.808
9.5122	26.371
9.4948	26.659
9.4774	26.817
9.4601	26.801
9.4429	26.639
9.4257	26.565
9.4086	26.587
9.3916	26.442
9.3746	26.098
9.3577	25.792
9.3408	25.556
9.3240	25.431
9.3073	25.409
9.2906	25.429
9.2740	25.528
9.2574	25.736
9.2409	25.992
9.2245	26.206
9.2081	26.307
9.1918	26.368
9.1755	26.387
9.1593	26.181
9.1431	25.532
9.1270	24.258
9.1110	22.119
9.0950	20.571
9.0791	21.393
9.0632	23.610
9.0474	25.378
9.0316	26.349
9.0159	26.753
9.0003	26.691
8.9847	26.393
8.9691	26.019
8.9536	25.719
8.9382	25.635
8.9228	25.638
8.9075	25.567
8.8922	25.390
8.8770	25.389
8.8618	25.614
8.8467	25.942
8.8316	26.327
8.8166	26.618
8.8016	26.680
8.7867	26.443
8.7718	25.824
8.7570	25.082
8.7422	24.519
8.7275	24.299
8.7129	24.310
8.6982	24.367
8.6837	24.479
8.6692	24.707
8.6547	24.910
8.6403	25.022
8.6259	25.046
8.6116	24.852
8.5973	24.432
8.5830	23.907
8.5688	23.312
8.5547	22.787
8.5406	22.349
8.5266	21.931
8.5126	21.487
8.4986	20.985
8.4847	20.317
8.4708	19.591
8.4570	19.016
8.4432	18.606
8.4295	18.285
8.4158	18.036
8.4022	17.843
8.3886	17.742
8.3750	17.837
8.3615	18.281
8.3481	19.003
8.3347	19.827
8.3213	20.562
8.3079	21.069
8.2946	21.276
8.2814	21.220
8.2682	21.060
8.2550	20.873
8.2419	20.653
8.2288	20.358
8.2158	19.924
8.2028	19.263
8.1898	18.384
8.1769	17.453
8.1640	16.568
8.1512	15.796
8.1384	15.312
8.1256	15.134
8.1129	15.231
8.1002	15.520
8.0876	15.817
8.0750	16.027
8.0624	16.169
8.0499	16.242
8.0374	16.343
8.0250	16.459
8.0126	16.543
8.0002	16.587
7.9879	16.622
7.9756	16.660
7.9634	16.716
7.9512	16.759
7.9390	16.742
7.9268	16.699
7.9147	16.702
7.9027	16.754
7.8906	16.823
7.8786	16.899
7.8667	16.983
7.8548	16.989
7.8429	16.874
7.8310	16.659
7.8192	16.323
7.8075	15.927
7.7957	15.476
7.7840	15.007
7.7723	14.576
7.7607	14.183
7.7491	13.845
7.7375	13.558
7.7260	13.288
7.7145	13.052
7.7031	12.830
7.6916	12.626
7.6802	12.518
7.6689	12.532
7.6575	12.635
7.6462	12.785
7.6350	12.903
7.6238	12.939
7.6126	12.872
7.6014	12.777
7.5903	12.633
7.5792	12.461
7.5681	12.239
7.5571	11.986
7.5461	11.696
7.5351	11.337
7.5242	10.942
7.5133	10.555
7.5024	10.190
7.4916	9.9174
7.4807	9.7073
7.4700	9.5565
7.4592	9.4307
7.4485	9.3424
7.4378	9.2439
7.4272	9.1458
7.4165	9.0812
7.4059	9.0402
7.3954	8.9076
7.3848	8.6750
7.3743	8.3928
7.3639	8.0967
7.3534	7.8348
7.3430	7.6210
7.3326	7.3950
7.3223	7.1627
7.3119	6.9226
7.3016	6.6844
7.2914	6.4760
7.2811	6.2927
7.2709	6.0975
7.2607	5.9024
7.2506	5.7087
7.2404	5.5619
7.2303	5.4326
7.2203	5.3544
7.2102	5.2755
7.2002	5.1811
7.1902	5.1237
7.1803	5.0842
7.1703	5.0184
7.1604	4.9746
7.1506	4.9854
7.1407	5.0195
7.1309	5.0217
7.1211	5.0520
7.1113	5.0996
7.1016	5.1834
7.0919	5.3004
7.0822	5.4657
7.0725	5.7508
7.0629	6.1364
7.0533	6.6081
7.0437	7.1064
7.0341	7.5189
7.0246	7.8102
7.0151	7.9788
7.0056	8.0560
6.9962	8.0418
6.9867	8.0001
6.9773	7.9850
6.9679	7.9442
6.9586	7.8758
6.9493	7.8651
6.9400	7.8737
6.9307	7.8599
6.9214	7.8462
6.9122	7.8741
6.9030	7.8992
6.8938	7.9194
6.8847	7.9487
6.8755	7.9771
6.8664	8.0162
6.8573	8.0944
6.8483	8.1630
6.8393	8.2248
6.8302	8.2665
6.8213	8.3189
6.8123	8.3710
6.8034	8.4539
6.7944	8.5107
6.7855	8.5614
6.7767	8.5820
6.7678	8.6201
6.7590	8.6741
6.7502	8.7596
6.7414	8.8107
6.7327	8.8929
6.7239	8.9995
6.7152	9.0795
6.7065	9.1605
6.6979	9.2524
6.6892	9.3315
6.6806	9.4371
6.6720	9.5697
6.6634	9.7386
6.6549	9.8721
6.6464	9.9804
6.6378	10.149
6.6294	10.351
6.6209	10.497
6.6124	10.648
6.6040	10.853
6.5956	11.054
6.5872	11.214
6.5789	11.380
6.5705	11.547
6.5622	11.742
6.5539	11.935
6.5456	12.155
6.5374	12.377
6.5292	12.596
6.5209	12.829
6.5128	13.083
6.5046	13.310
6.4964	13.497
6.4883	13.679
6.4802	13.900
6.4721	14.117
6.4640	14.321
6.4560	14.508
6.4480	14.712
6.4399	14.873
6.4320	15.038
6.4240	15.185
6.4160	15.332
6.4081	15.556
6.4002	15.798
6.3923	16.058
6.3844	16.389
6.3766	16.755
6.3687	17.146
6.3609	17.386
6.3531	17.236
6.3454	16.601
6.3376	15.617
6.3299	14.535
6.3221	13.419
6.3144	12.293
6.3068	11.238
6.2991	10.244
6.2914	9.3078
6.2838	8.4098
6.2762	7.5899
6.2686	6.9529
6.2611	6.4603
6.2535	6.0476
6.2460	5.7063
6.2385	5.3781
6.2310	5.1462
6.2235	5.0039
6.2160	4.9125
6.2086	4.8673
6.2011	4.8917
6.1937	4.9310
6.1863	4.8936
6.1790	4.8377
6.1716	4.7908
6.1643	4.7394
6.1570	4.6814
6.1496	4.6080
6.1424	4.5379
6.1351	4.4076
6.1278	4.2452
6.1206	4.1170
6.1134	3.9799
6.1062	3.8582
6.0990	3.7786
6.0918	3.7367
6.0847	3.7547
6.0776	3.8407
6.0704	3.9411
6.0633	4.0394
6.0563	4.1196
6.0492	4.1980
6.0421	4.2892
6.0351	4.3671
6.0281	4.4251
6.0211	4.5218
6.0141	4.6321
6.0071	4.7635
6.0002	4.8997
5.9932	5.0416
5.9863	5.1934
5.9794	5.3241
5.9725	5.4344
5.9657	5.5879
5.9588	5.7499
5.9520	5.8733
5.9451	6.0298
5.9383	6.2212
5.9315	6.4224
5.9247	6.6105
5.9180	6.7971
5.9112	6.9666
5.9045	7.1192
5.8978	7.2636
5.8911	7.3827
5.8844	7.4971
5.8777	7.6873
5.8711	7.8540
5.8644	7.9885
5.8578	8.1735
5.8512	8.3785
5.8446	8.5779
5.8380	8.7309
5.8314	8.8652
5.8249	8.9621
5.8184	9.0179
5.8118	9.0800
5.8053	9.1638
5.7988	9.2801
5.7923	9.4314
5.7859	9.5728
5.7794	9.6834
5.7730	9.8023
5.7666	9.8935
5.7602	9.9711
5.7538	10.032
5.7474	10.110
5.7410	10.219
5.7347	10.381
5.7283	10.585
5.7220	10.824
5.7157	11.034
5.7094	11.222
5.7031	11.398
5.6969	11.460
5.6906	11.439
5.6844	11.512
5.6782	11.579
5.6719	11.564
5.6657	11.522
5.6596	11.425
5.6534	11.310
5.6472	11.181
5.6411	11.028
5.6349	10.898
5.6288	10.764
5.6227	10.600
5.6166	10.407
5.6106	10.207
5.6045	9.9950
5.5984	9.7817
5.5924	9.5027
5.5864	9.1340
5.5804	8.7475
5.5744	8.3039
5.5684	7.8142
5.5624	7.2923
5.5564	6.7220
5.5505	6.1548
5.5445	5.5794
5.5386	5.0015
5.5327	4.4545
5.5268	3.9593
5.5209	3.5589
5.5151	3.3353
5.5092	3.2430
5.5033	3.1885
5.4975	3.1610
5.4917	3.1994
5.4859	3.3607
5.4801	3.6801
5.4743	4.2489
5.4685	5.1910
5.4628	6.5314
5.4570	8.2031
5.4513	10.049
5.4455	11.932
5.4398	13.767
5.4341	15.530
5.4284	17.229
5.4228	18.807
5.4171	20.319
5.4114	21.714
5.4058	22.950
5.4002	24.090
5.3945	25.121
5.3889	26.040
5.3833	26.868
5.3778	27.602
5.3722	28.299
5.3666	28.976
5.3611	29.592
5.3555	30.177
5.3500	30.747
5.3445	31.263
5.3390	31.696
5.3335	32.081
5.3280	32.423
5.3225	32.714
5.3171	32.994
5.3116	33.276
5.3062	33.606
5.3008	33.968
5.2954	34.371
5.2900	34.829
5.2846	35.270
5.2792	35.734
5.2738	36.232
5.2684	36.722
5.2631	37.233
5.2578	37.746
5.2524	38.249
5.2471	38.752
5.2418	39.247
5.2365	39.710
5.2312	40.162
5.2260	40.600
5.2207	40.991
5.2154	41.345
5.2102	41.667
5.2050	41.978
5.1998	42.299
5.1945	42.608
5.1893	42.914
5.1842	43.194
5.1790	43.474
5.1738	43.789
5.1686	44.090
5.1635	44.399
5.1584	44.672
5.1532	44.886
5.1481	45.104
5.1430	45.310
5.1379	45.464
5.1328	45.610
5.1277	45.745
5.1227	45.897
5.1176	46.046
5.1126	46.164
5.1075	46.240
5.1025	46.294
5.0975	46.311
5.0925	46.241
5.0875	46.053
5.0825	45.721
5.0775	45.085
5.0726	44.040
5.0676	42.943
5.0627	42.461
5.0577	42.997
5.0528	44.131
5.0479	45.326
5.0430	46.296
5.0380	47.018
5.0332	47.549
5.0283	47.911
5.0234	48.194
5.0185	48.402
5.0137	48.558
5.0088	48.677
5.0040	48.787
4.9992	48.890
4.9944	48.964
4.9896	49.019
4.9848	49.082
4.9800	49.140
4.9752	49.207
4.9704	49.244
4.9657	49.276
4.9609	49.343
4.9562	49.390
4.9514	49.421
4.9467	49.479
4.9420	49.515
4.9373	49.565
4.9326	49.620
4.9279	49.625
4.9232	49.607
4.9186	49.641
4.9139	49.696
4.9092	49.726
4.9046	49.752
4.9000	49.734
4.8953	49.709
4.8907	49.748
4.8861	49.811
4.8815	49.818
4.8769	49.794
4.8723	49.824
4.8678	49.841
4.8632	49.835
4.8586	49.813
4.8541	49.821
4.8495	49.844
4.8450	49.845
4.8405	49.810
4.8360	49.780
4.8315	49.778
4.8270	49.814
4.8225	49.806
4.8180	49.780
4.8135	49.769
4.8090	49.729
4.8046	49.739
4.8001	49.752
4.7957	49.713
4.7913	49.668
4.7868	49.640
4.7824	49.623
4.7780	49.595
4.7736	49.555
4.7692	49.545
4.7648	49.544
4.7605	49.483
4.7561	49.433
4.7517	49.377
4.7474	49.302
4.7431	49.236
4.7387	49.185
4.7344	49.103
4.7301	48.973
4.7258	48.822
4.7215	48.641
4.7172	48.472
4.7129	48.234
4.7086	47.948
4.7043	47.678
4.7000	47.357
4.6958	46.998
4.6915	46.549
4.6873	45.979
4.6831	45.299
4.6788	44.492
4.6746	43.558
4.6704	42.551
4.6662	41.534
4.6620	40.545
4.6578	39.700
4.6536	39.017
4.6495	38.481
4.6453	38.092
4.6411	37.821
4.6370	37.610
4.6328	37.466
4.6287	37.365
4.6246	37.276
4.6205	37.214
4.6163	37.200
4.6122	37.282
4.6081	37.493
4.6040	37.818
4.6000	38.248
4.5959	38.745
4.5918	39.298
4.5877	39.848
4.5837	40.386
4.5796	40.924
4.5756	41.448
4.5716	41.884
4.5675	42.269
4.5635	42.651
4.5595	43.009
4.5555	43.342
4.5515	43.646
4.5475	43.929
4.5435	44.189
4.5395	44.423
4.5356	44.641
4.5316	44.806
4.5276	44.974
4.5237	45.171
4.5197	45.404
4.5158	45.695
4.5119	45.993
4.5080	46.418
4.5040	46.895
4.5001	47.305
4.4962	47.655
4.4923	47.885
4.4884	48.016
4.4846	48.040
4.4807	47.991
4.4768	47.868
4.4730	47.640
4.4691	47.398
4.4652	47.102
4.4614	46.701
4.4576	46.277
4.4537	45.908
4.4499	45.600
4.4461	45.341
4.4423	45.206
4.4385	45.161
4.4347	45.183
4.4309	45.267
4.4271	45.427
4.4233	45.642
4.4196	45.948
4.4158	46.258
4.4120	46.544
4.4083	46.859
4.4045	47.151
4.4008	47.422
4.3971	47.698
4.3934	47.954
4.3896	48.155
4.3859	48.375
4.3822	48.579
4.3785	48.761
4.3748	48.950
4.3711	49.100
4.3674	49.165
4.3638	49.270
4.3601	49.367
4.3564	49.366
4.3528	49.224
4.3491	48.912
4.3455	48.488
4.3418	47.966
4.3382	47.458
4.3346	47.021
4.3310	46.626
4.3273	46.246
4.3237	45.876
4.3201	45.506
4.3165	45.063
4.3129	44.607
4.3094	44.191
4.3058	43.765
4.3022	43.309
4.2986	42.842
4.2951	42.367
4.2915	41.860
4.2880	41.357
4.2844	40.848
4.2809	40.366
4.2774	39.955
4.2738	39.556
4.2703	39.247
4.2668	39.284
4.2633	39.717
4.2598	40.296
4.2563	40.810
4.2528	41.215
4.2493	41.541
4.2458	41.771
4.2424	41.981
4.2389	42.258
4.2354	42.629
4.2320	43.061
4.2285	43.567
4.2251	44.102
4.2216	44.606
4.2182	45.123
4.2148	45.613
4.2113	46.095
4.2079	46.573
4.2045	46.986
4.2011	47.347
4.1977	47.583
4.1943	47.703
4.1909	47.745
4.1875	47.741
4.1841	47.728
4.1808	47.666
4.1774	47.593
4.1740	47.499
4.1707	47.404
4.1673	47.284
4.1640	47.121
4.1606	46.931
4.1573	46.711
4.1540	46.452
4.1506	46.268
4.1473	46.211
4.1440	46.207
4.1407	46.186
4.1374	46.192
4.1341	46.193
4.1308	46.159
4.1275	46.110
4.1242	46.057
4.1209	45.996
4.1177	45.894
4.1144	45.769
4.1111	45.674
4.1079	45.545
4.1046	45.387
4.1014	45.224
4.0981	45.057
4.0949	44.859
4.0917	44.625
4.0884	44.375
4.0852	44.098
4.0820	43.756
4.0788	43.412
4.0756	43.049
4.0724	42.643
4.0692	42.227
4.0660	41.799
4.0628	41.336
4.0596	40.856
4.0565	40.331
4.0533	39.771
4.0501	39.158
4.0470	38.493
4.0438	37.798
4.0406	37.025
4.0375	36.172
4.0344	35.301
4.0312	34.360
4.0281	33.382
4.0250	32.330
4.0218	31.159
4.0187	29.921
4.0156	28.592
4.0125	27.146
4.0094	25.605
4.0063	24.048
4.0032	22.493
4.0001	21.005
3.9970	19.568
3.9940	18.185
3.9909	16.812
3.9878	15.426
3.9847	13.989
3.9817	12.476
3.9786	10.921
3.9756	9.4542
3.9725	8.2279
3.9695	7.3569
3.9665	6.8506
3.9634	6.6237
3.9604	6.5427
3.9574	6.5044
3.9544	6.5456
3.9513	6.6275
3.9483	6.6694
3.9453	6.7279
3.9423	6.8302
3.9393	6.9650
3.9363	7.1315
3.9333	7.3039
3.9304	7.4910
3.9274	7.6378
3.9244	7.7595
3.9214	7.9056
3.9185	8.0880
3.9155	8.3901
3.9126	8.8626
3.9096	9.5015
3.9067	10.254
3.9037	11.041
3.9008	11.829
3.8979	12.524
3.8949	13.075
3.8920	13.398
3.8891	13.513
3.8862	13.537
3.8833	13.573
3.8804	13.710
3.8775	13.965
3.8746	14.275
3.8717	14.587
3.8688	14.930
3.8659	15.328
3.8630	15.865
3.8601	16.613
3.8573	17.646
3.8544	18.984
3.8515	20.568
3.8487	22.153
3.8458	23.426
3.8430	24.210
3.8401	24.490
3.8373	24.360
3.8344	23.954
3.8316	23.362
3.8288	22.606
3.8259	21.706
3.8231	20.730
3.8203	19.695
3.8175	18.623
3.8147	17.534
3.8119	16.484
3.8091	15.676
3.8063	15.240
3.8035	15.243
3.8007	15.664
3.7979	16.317
3.7951	17.094
3.7924	17.995
3.7896	18.973
3.7868	20.019
3.7841	21.102
3.7813	22.218
3.7785	23.299
3.7758	24.412
3.7730	25.549
3.7703	26.669
3.7676	27.797
3.7648	28.987
3.7621	30.231
3.7594	31.549
3.7566	32.947
3.7539	34.368
3.7512	35.843
3.7485	37.323
3.7458	38.700
3.7431	39.934
3.7404	40.980
3.7377	41.801
3.7350	42.473
3.7323	43.019
3.7296	43.405
3.7269	43.742
3.7242	44.021
3.7216	44.258
3.7189	44.504
3.7162	44.721
3.7136	44.918
3.7109	45.055
3.7083	45.236
3.7056	45.463
3.7030	45.687
3.7003	45.871
3.6977	46.058
3.6950	46.271
3.6924	46.445
3.6898	46.601
3.6872	46.776
3.6845	46.917
3.6819	47.035
3.6793	47.114
3.6767	47.219
3.6741	47.319
3.6715	47.367
3.6689	47.410
3.6663	47.484
3.6637	47.523
3.6611	47.565
3.6585	47.606
3.6560	47.645
3.6534	47.682
3.6508	47.683
3.6482	47.672
3.6457	47.681
3.6431	47.717
3.6406	47.739
3.6380	47.734
3.6355	47.711
3.6329	47.718
3.6304	47.733
3.6278	47.715
3.6253	47.669
3.6227	47.618
3.6202	47.590
3.6177	47.572
3.6152	47.590
3.6127	47.566
3.6101	47.506
3.6076	47.464
3.6051	47.414
3.6026	47.366
3.6001	47.348
3.5976	47.307
3.5951	47.247
3.5926	47.200
3.5901	47.132
3.5876	47.055
3.5852	46.977
3.5827	46.942
3.5802	46.890
3.5777	46.751
3.5753	46.610
3.5728	46.474
3.5704	46.308
3.5679	46.107
3.5654	45.822
3.5630	45.505
3.5605	45.076
3.5581	44.471
3.5557	43.752
3.5532	42.980
3.5508	42.275
3.5484	41.904
3.5459	41.972
3.5435	42.263
3.5411	42.531
3.5387	42.614
3.5363	42.501
3.5338	42.283
3.5314	41.914
3.5290	41.389
3.5266	40.787
3.5242	40.130
3.5218	39.287
3.5195	38.315
3.5171	37.242
3.5147	36.044
3.5123	34.693
3.5099	33.196
3.5075	31.594
3.5052	29.908
3.5028	28.158
3.5004	26.355
3.4981	24.554
3.4957	22.840
3.4934	21.289
3.4910	19.955
3.4887	18.869
3.4863	18.001
3.4840	17.238
3.4816	16.595
3.4793	16.052
3.4770	15.524
3.4746	15.004
3.4723	14.507
3.4700	14.063
3.4677	13.680
3.4653	13.348
3.4630	13.066
3.4607	12.786
3.4584	12.551
3.4561	12.360
3.4538	12.153
3.4515	12.008
3.4492	11.990
3.4469	12.125
3.4446	12.433
3.4423	12.902
3.4400	13.489
3.4378	14.269
3.4355	15.145
3.4332	16.049
3.4309	16.902
3.4287	17.649
3.4264	18.216
3.4241	18.623
3.4219	18.986
3.4196	19.310
3.4174	19.583
3.4151	19.765
3.4129	19.959
3.4106	20.138
3.4084	20.292
3.4061	20.408
3.4039	20.504
3.4017	20.674
3.3994	20.914
3.3972	21.155
3.3950	21.343
3.3928	21.535
3.3906	21.740
3.3883	21.890
3.3861	22.080
3.3839	22.476
3.3817	23.070
3.3795	23.686
3.3773	24.147
3.3751	24.347
3.3729	24.265
3.3707	23.976
3.3685	23.517
3.3663	22.985
3.3641	22.494
3.3620	21.964
3.3598	21.430
3.3576	20.935
3.3554	20.497
3.3533	20.128
3.3511	19.795
3.3489	19.416
3.3468	19.033
3.3446	18.749
3.3425	18.511
3.3403	18.349
3.3382	18.278
3.3360	18.267
3.3339	18.320
3.3317	18.389
3.3296	18.438
3.3274	18.367
3.3253	18.181
3.3232	17.928
3.3210	17.610
3.3189	17.215
3.3168	16.807
3.3147	16.337
3.3126	15.817
3.3104	15.529
3.3083	15.500
3.3062	15.784
3.3041	16.405
3.3020	17.430
3.2999	19.146
3.2978	21.586
3.2957	24.490
3.2936	27.468
3.2915	29.982
3.2894	31.872
3.2874	33.256
3.2853	34.343
3.2832	35.235
3.2811	35.937
3.2790	36.458
3.2770	36.935
3.2749	37.337
3.2728	37.661
3.2708	37.955
3.2687	38.216
3.2666	38.462
3.2646	38.692
3.2625	38.890
3.2605	39.052
3.2584	39.158
3.2564	39.308
3.2543	39.504
3.2523	39.669
3.2503	39.802
3.2482	39.856
3.2462	39.907
3.2442	39.998
3.2421	40.076
3.2401	40.144
3.2381	40.236
3.2361	40.299
3.2340	40.293
3.2320	40.284
3.2300	40.321
3.2280	40.382
3.2260	40.428
3.2240	40.457
3.2220	40.426
3.2200	40.426
3.2180	40.434
3.2160	40.437
3.2140	40.466
3.2120	40.474
3.2100	40.437
3.2080	40.382
3.2060	40.358
3.2040	40.367
3.2021	40.317
3.2001	40.239
3.1981	40.212
3.1961	40.217
3.1942	40.171
3.1922	40.105
3.1902	40.058
3.1883	39.993
3.1863	39.929
3.1844	39.849
3.1824	39.800
3.1805	39.758
3.1785	39.678
3.1766	39.618
3.1746	39.557
3.1727	39.516
3.1707	39.423
3.1688	39.320
3.1669	39.214
3.1649	39.130
3.1630	39.071
3.1611	38.971
3.1591	38.867
3.1572	38.774
3.1553	38.618
3.1534	38.431
3.1515	38.274
3.1495	38.134
3.1476	37.969
3.1457	37.784
3.1438	37.627
3.1419	37.511
3.1400	37.365
3.1381	37.257
3.1362	37.146
3.1343	37.012
3.1324	36.931
3.1305	36.881
3.1286	36.792
3.1268	36.684
3.1249	36.628
3.1230	36.563
3.1211	36.465
3.1192	36.407
3.1174	36.341
3.1155	36.207
3.1136	36.056
3.1117	35.980
3.1099	35.925
3.1080	35.855
3.1061	35.814
3.1043	35.721
3.1024	35.566
3.1006	35.492
3.0987	35.441
3.0969	35.310
3.0950	35.181
3.0932	35.065
3.0913	34.969
3.0895	34.795
3.0876	34.674
3.0858	34.610
3.0840	34.568
3.0821	34.521
3.0803	34.433
3.0785	34.338
3.0766	34.302
3.0748	34.304
3.0730	34.292
3.0712	34.302
3.0694	34.313
3.0675	34.338
3.0657	34.325
3.0639	34.268
3.0621	34.228
3.0603	34.227
3.0585	34.217
3.0567	34.175
3.0549	34.106
3.0531	34.083
3.0513	34.090
3.0495	33.986
3.0477	33.920
3.0459	33.864
3.0441	33.821
3.0423	33.729
3.0406	33.658
3.0388	33.631
3.0370	33.574
3.0352	33.550
3.0334	33.537
3.0317	33.491
3.0299	33.468
3.0281	33.453
3.0264	33.418
3.0246	33.366
3.0228	33.287
3.0211	33.199
3.0193	33.206
3.0176	33.169
3.0158	33.089
3.0140	33.038
3.0123	32.986
3.0105	32.901
3.0088	32.828
3.0070	32.763
3.0053	32.655
3.0036	32.583
3.0018	32.591
3.0001	32.559
2.9984	32.477
2.9966	32.364
2.9949	32.209
2.9932	32.119
2.9914	32.047
2.9897	31.971
2.9880	31.909
2.9863	31.838
2.9845	31.785
2.9828	31.765
2.9811	31.698
2.9794	31.556
2.9777	31.428
2.9760	31.397
2.9743	31.365
2.9726	31.332
2.9709	31.239
2.9692	31.156
2.9675	31.118
2.9658	31.058
2.9641	31.036
2.9624	31.006
2.9607	30.927
2.9590	30.856
2.9573	30.827
2.9556	30.788
2.9539	30.755
2.9523	30.687
2.9506	30.649
2.9489	30.631
2.9472	30.565
2.9455	30.528
2.9439	30.537
2.9422	30.550
2.9405	30.466
2.9389	30.440
2.9372	30.450
2.9355	30.424
2.9339	30.372
2.9322	30.361
2.9306	30.382
2.9289	30.404
2.9272	30.442
2.9256	30.444
2.9239	30.406
2.9223	30.398
2.9207	30.398
2.9190	30.437
2.9174	30.477
2.9157	30.504
2.9141	30.525
2.9124	30.523
2.9108	30.547
2.9092	30.534
2.9075	30.546
2.9059	30.632
2.9043	30.688
2.9027	30.700
2.9010	30.729
2.8994	30.833
2.8978	30.933
2.8962	30.974
2.8946	30.993
2.8929	31.034
2.8913	31.077
2.8897	31.127
2.8881	31.198
2.8865	31.271
2.8849	31.298
2.8833	31.320
2.8817	31.450
2.8801	31.610
2.8785	31.673
2.8769	31.717
2.8753	31.774
2.8737	31.867
2.8721	31.952
2.8705	32.046
2.8689	32.124
2.8673	32.238
2.8658	32.338
2.8642	32.410
2.8626	32.479
2.8610	32.563
2.8594	32.658
2.8579	32.764
2.8563	32.832
2.8547	32.901
2.8531	32.979
2.8516	33.033
2.8500	33.161
2.8484	33.324
2.8469	33.437
2.8453	33.559
2.8437	33.649
2.8422	33.784
2.8406	33.963
2.8391	34.053
2.8375	34.064
2.8360	34.125
2.8344	34.258
2.8329	34.388
2.8313	34.528
2.8298	34.658
2.8282	34.810
2.8267	34.913
2.8252	34.987
2.8236	35.125
2.8221	35.216
2.8205	35.296
2.8190	35.393
2.8175	35.561
2.8159	35.645
2.8144	35.733
2.8129	35.868
2.8114	35.990
2.8098	36.123
2.8083	36.201
2.8068	36.285
2.8053	36.357
2.8038	36.402
2.8022	36.557
2.8007	36.643
2.7992	36.712
2.7977	36.812
2.7962	36.873
2.7947	36.978
2.7932	37.056
2.7917	37.069
2.7902	37.125
2.7887	37.218
2.7872	37.310
2.7857	37.388
2.7842	37.402
2.7827	37.439
2.7812	37.559
2.7797	37.569
2.7782	37.504
2.7767	37.528
2.7752	37.534
2.7738	37.547
2.7723	37.555
2.7708	37.532
2.7693	37.602
2.7678	37.659
2.7664	37.679
2.7649	37.643
2.7634	37.517
2.7619	37.633
2.7605	38.122
2.7590	38.595
2.7575	38.951
2.7561	39.241
2.7546	39.537
2.7531	39.837
2.7517	40.094
2.7502	40.361
2.7488	40.616
2.7473	40.851
2.7458	41.044
2.7444	41.208
2.7429	41.382
2.7415	41.525
2.7400	41.683
2.7386	41.903
2.7371	42.238
2.7357	42.551
2.7343	42.839
2.7328	43.133
2.7314	43.368
2.7299	43.576
2.7285	43.706
2.7271	43.851
2.7256	43.972
2.7242	44.147
2.7228	44.397
2.7213	44.607
2.7199	44.853
2.7185	45.113
2.7171	45.277
2.7156	45.375
2.7142	45.425
2.7128	45.437
2.7114	45.398
2.7100	45.325
2.7085	45.330
2.7071	45.388
2.7057	45.451
2.7043	45.627
2.7029	45.886
2.7015	46.159
2.7001	46.487
2.6987	46.769
2.6973	46.934
2.6959	47.055
2.6945	47.116
2.6931	47.236
2.6917	47.471
2.6903	47.626
2.6889	47.670
2.6875	47.708
2.6861	47.813
2.6847	47.938
2.6833	48.006
2.6819	48.059
2.6805	48.177
2.6791	48.272
2.6778	48.312
2.6764	48.345
2.6750	48.400
2.6736	48.503
2.6722	48.522
2.6709	48.403
2.6695	48.450
2.6681	48.595
2.6667	48.651
2.6654	48.650
2.6640	48.690
2.6626	48.780
2.6613	48.813
2.6599	48.846
2.6585	48.890
2.6572	48.889
2.6558	48.858
2.6545	48.909
2.6531	48.922
2.6517	48.928
2.6504	48.959
2.6490	48.974
2.6477	48.973
2.6463	48.986
2.6450	49.017
2.6436	49.058
2.6423	49.006
2.6409	48.973
2.6396	49.003
2.6382	48.998
2.6369	48.997
2.6356	49.019
2.6342	48.981
2.6329	48.916
2.6315	48.879
2.6302	48.887
2.6289	48.936
2.6275	48.881
2.6262	48.876
2.6249	48.943
2.6236	48.948
2.6222	48.949
2.6209	48.878
2.6196	48.855
2.6183	48.910
2.6169	48.907
2.6156	48.937
2.6143	48.931
2.6130	48.894
2.6117	48.910
2.6103	48.936
2.6090	48.942
2.6077	48.914
2.6064	48.854
2.6051	48.833
2.6038	48.885
2.6025	48.874
2.6012	48.869
2.5999	48.915
2.5986	48.922
2.5973	48.876
2.5960	48.730
2.5947	48.651
2.5934	48.761
2.5921	48.840
2.5908	48.827
2.5895	48.798
2.5882	48.775
2.5869	48.755
2.5856	48.766
2.5843	48.676
2.5830	48.670
2.5817	48.713
2.5805	48.706
2.5792	48.710
2.5779	48.678
2.5766	48.649
2.5753	48.680
2.5741	48.647
2.5728	48.616
2.5715	48.626
2.5702	48.567
2.5690	48.537
2.5677	48.549
2.5664	48.487
2.5651	48.408
2.5639	48.367
2.5626	48.345
2.5613	48.324
2.5601	48.322
2.5588	48.333
2.5575	48.317
2.5563	48.258
2.5550	48.230
2.5538	48.148
2.5525	48.062
2.5513	47.992
2.5500	47.965
2.5487	47.975
2.5475	47.871
2.5462	47.737
2.5450	47.574
2.5437	47.457
2.5425	47.356
2.5413	47.206
2.5400	47.020
2.5388	46.842
2.5375	46.659
2.5363	46.490
2.5350	46.322
2.5338	46.119
2.5326	45.962
2.5313	45.834
2.5301	45.679
2.5289	45.503
2.5276	45.355
2.5264	45.263
2.5252	45.201
2.5239	45.042
2.5227	44.879
2.5215	44.816
2.5202	44.755
2.5190	44.666
2.5178	44.641
2.5166	44.679
2.5154	44.693
2.5141	44.660
2.5129	44.603
2.5117	44.632
2.5105	44.730
2.5093	44.780
2.5081	44.786
2.5068	44.833
2.5056	44.882
2.5044	44.936
2.5032	45.029
2.5020	45.084
2.5008	45.124
2.4996	45.177
2.4984	45.233
2.4972	45.286
2.4960	45.336
2.4948	45.367
2.4936	45.442
2.4924	45.506
2.4912	45.572
2.4900	45.630
2.4888	45.697
2.4876	45.772
2.4864	45.856
2.4852	45.902
2.4840	45.954
2.4828	46.039
2.4816	46.115
2.4805	46.149
2.4793	46.169
2.4781	46.203
2.4769	46.261
2.4757	46.280
2.4745	46.289
2.4734	46.314
2.4722	46.305
2.4710	46.268
2.4698	46.292
2.4686	46.316
2.4675	46.322
2.4663	46.295
2.4651	46.266
2.4640	46.335
2.4628	46.394
2.4616	46.375
2.4604	46.417
2.4593	46.460
2.4581	46.441
2.4569	46.459
2.4558	46.452
2.4546	46.467
2.4535	46.478
2.4523	46.560
2.4511	46.660
2.4500	46.775
2.4488	46.747
2.4477	46.697
2.4465	46.817
2.4454	46.944
2.4442	46.997
2.4431	47.023
2.4419	47.081
2.4408	47.151
2.4396	47.193
2.4385	47.196
2.4373	47.203
2.4362	47.283
2.4350	47.341
2.4339	47.384
2.4327	47.405
2.4316	47.385
2.4305	47.427
2.4293	47.467
2.4282	47.546
2.4270	47.581
2.4259	47.547
2.4248	47.610
2.4236	47.697
2.4225	47.661
2.4214	47.664
2.4202	47.712
2.4191	47.715
2.4180	47.716
2.4169	47.754
2.4157	47.804
2.4146	47.851
2.4135	47.848
2.4124	47.895
2.4112	47.836
2.4101	47.777
2.4090	47.791
2.4079	47.786
2.4068	47.856
2.4056	47.863
2.4045	47.880
2.4034	47.905
2.4023	47.875
2.4012	47.906
2.4001	47.926
2.3990	47.897
2.3979	47.843
2.3967	47.829
2.3956	47.878
2.3945	47.896
2.3934	47.890
2.3923	47.888
2.3912	47.910
2.3901	47.913
2.3890	47.858
2.3879	47.899
2.3868	47.913
2.3857	47.861
2.3846	47.870
2.3835	47.880
2.3824	47.802
2.3813	47.816
2.3802	47.860
2.3791	47.869
2.3781	47.929
2.3770	47.901
2.3759	47.863
2.3748	47.896
2.3737	47.907
2.3726	47.926
2.3715	47.923
2.3704	47.937
2.3694	47.935
2.3683	47.893
2.3672	47.906
2.3661	47.917
2.3650	47.897
2.3640	47.898
2.3629	47.932
2.3618	47.901
2.3607	47.853
2.3597	47.849
2.3586	47.918
2.3575	47.909
2.3564	47.806
2.3554	47.757
2.3543	47.712
2.3532	47.695
2.3522	47.636
2.3511	47.566
2.3500	47.530
2.3490	47.499
2.3479	47.468
2.3468	47.432
2.3458	47.329
2.3447	47.239
2.3436	47.195
2.3426	47.150
2.3415	47.061
2.3405	47.005
2.3394	46.979
2.3384	46.894
2.3373	46.751
2.3363	46.680
2.3352	46.666
2.3342	46.523
2.3331	46.472
2.3321	46.459
2.3310	46.342
2.3300	46.209
2.3289	46.142
2.3279	46.149
2.3268	46.127
2.3258	46.118
2.3247	46.099
2.3237	46.071
2.3226	46.035
2.3216	45.997
2.3206	46.051
2.3195	46.079
2.3185	46.044
2.3175	46.101
2.3164	46.161
2.3154	46.151
2.3144	46.132
2.3133	46.119
2.3123	46.146
2.3113	46.243
2.3102	46.243
2.3092	46.221
2.3082	46.232
2.3071	46.250
2.3061	46.303
2.3051	46.296
2.3041	46.289
2.3030	46.290
2.3020	46.329
2.3010	46.371
2.3000	46.355
2.2990	46.312
2.2979	46.337
2.2969	46.389
2.2959	46.403
2.2949	46.358
2.2939	46.376
2.2929	46.485
2.2918	46.478
2.2908	46.467
2.2898	46.596
2.2888	46.602
2.2878	46.505
2.2868	46.575
2.2858	46.598
2.2848	46.558
2.2838	46.588
2.2828	46.579
2.2818	46.537
2.2808	46.577
2.2798	46.597
2.2787	46.600
2.2777	46.575
2.2767	46.537
2.2757	46.520
2.2747	46.523
2.2738	46.520
2.2728	46.540
2.2718	46.577
2.2708	46.594
2.2698	46.588
2.2688	46.590
2.2678	46.612
2.2668	46.620
2.2658	46.619
2.2648	46.666
2.2638	46.655
2.2628	46.650
2.2618	46.672
2.2609	46.731
2.2599	46.739
2.2589	46.792
2.2579	46.838
2.2569	46.815
2.2559	46.743
2.2550	46.761
2.2540	46.822
2.2530	46.845
2.2520	46.878
2.2510	46.946
2.2501	46.930
2.2491	46.904
2.2481	46.933
2.2471	46.967
2.2462	46.999
2.2452	46.998
2.2442	46.998
2.2433	47.000
2.2423	47.026
2.2413	47.033
2.2403	47.027
2.2394	47.006
2.2384	47.058
2.2374	47.107
2.2365	47.091
2.2355	47.026
2.2345	47.025
2.2336	47.078
2.2326	47.104
2.2317	47.085
2.2307	46.993
2.2297	47.023
2.2288	47.111
2.2278	47.127
2.2269	47.114
2.2259	47.095
2.2250	47.070
2.2240	47.041
2.2231	47.064
2.2221	47.065
2.2211	47.069
2.2202	47.112
2.2192	47.112
2.2183	47.121
2.2173	47.069
2.2164	47.059
2.2155	47.068
2.2145	47.130
2.2136	47.097
2.2126	47.075
2.2117	47.105
2.2107	47.139
2.2098	47.121
2.2088	47.057
2.2079	47.073
2.2070	47.057
2.2060	47.014
2.2051	47.078
2.2041	47.108
2.2032	47.064
2.2023	47.018
2.2013	46.978
2.2004	46.966
2.1995	47.051
2.1985	47.090
2.1976	47.034
2.1967	46.994
2.1957	47.056
2.1948	47.111
2.1939	47.081
2.1930	47.055
2.1920	47.090
2.1911	47.082
2.1902	47.025
2.1893	46.986
2.1883	47.003
2.1874	46.954
2.1865	46.973
2.1856	47.010
2.1846	47.018
2.1837	47.032
2.1828	47.055
2.1819	47.116
2.1810	47.090
2.1800	46.998
2.1791	47.017
2.1782	47.088
2.1773	47.042
2.1764	46.999
2.1755	46.978
2.1746	46.905
2.1736	46.919
2.1727	46.940
2.1718	46.978
2.1709	47.037
2.1700	47.053
2.1691	47.045
2.1682	46.981
2.1673	46.865
2.1664	46.876
2.1655	46.992
2.1646	47.016
2.1637	46.946
2.1628	46.883
2.1619	46.925
2.1610	46.978
2.1601	46.980
2.1592	47.004
2.1583	46.968
2.1574	46.899
2.1565	46.923
2.1556	46.911
2.1547	46.836
2.1538	46.760
2.1529	46.738
2.1520	46.817
2.1511	46.894
2.1502	46.837
2.1493	46.808
2.1484	46.855
2.1475	46.821
2.1466	46.937
2.1458	46.970
2.1449	46.838
2.1440	46.781
2.1431	46.831
2.1422	46.808
2.1413	46.789
2.1404	46.773
2.1396	46.797
2.1387	46.791
2.1378	46.704
2.1369	46.689
2.1360	46.743
2.1352	46.770
2.1343	46.729
2.1334	46.629
2.1325	46.669
2.1316	46.783
2.1308	46.805
2.1299	46.736
2.1290	46.720
2.1281	46.766
2.1273	46.781
2.1264	46.751
2.1255	46.685
2.1247	46.673
2.1238	46.608
2.1229	46.554
2.1220	46.562
2.1212	46.611
2.1203	46.699
2.1194	46.680
2.1186	46.642
2.1177	46.700
2.1168	46.703
2.1160	46.675
2.1151	46.667
2.1143	46.689
2.1134	46.711
2.1125	46.690
2.1117	46.590
2.1108	46.619
2.1100	46.716
2.1091	46.738
2.1082	46.751
2.1074	46.725
2.1065	46.623
2.1057	46.582
2.1048	46.634
2.1040	46.701
2.1031	46.663
2.1023	46.618
2.1014	46.596
2.1005	46.595
2.0997	46.598
2.0988	46.608
2.0980	46.656
2.0971	46.586
2.0963	46.537
2.0955	46.619
2.0946	46.652
2.0938	46.609
2.0929	46.552
2.0921	46.544
2.0912	46.569
2.0904	46.613
2.0895	46.585
2.0887	46.535
2.0879	46.584
2.0870	46.580
2.0862	46.617
2.0853	46.693
2.0845	46.702
2.0837	46.529
2.0828	46.460
2.0820	46.447
2.0812	46.569
2.0803	46.659
2.0795	46.587
2.0760	46.587
2.0720	46.804
2.0680	46.935
2.0640	46.897
2.0600	46.500
2.0560	46.574
2.0520	46.853
2.0480	46.772
2.0440	46.401
2.0400	46.095
2.0360	45.960
2.0320	46.144
2.0280	46.158
2.0240	45.623
2.0200	45.841
2.0160	45.841
2.0120	45.932
2.0080	45.722
2.0040	45.274
2.0000	45.232
1.9960	45.068
1.9920	44.845
1.9880	45.109
1.9840	45.068
1.9800	44.822
1.9760	44.633
1.9720	44.592
1.9680	44.552
1.9640	44.411
1.9600	44.110
1.9560	44.031
1.9520	44.301
1.9480	44.120
1.9440	43.989
1.9400	43.717
1.9360	43.395
1.9320	43.502
1.9280	43.468
1.9240	43.606
1.9200	43.872
1.9160	43.595
1.9120	44.026
1.9080	44.601
1.9040	44.887
1.9000	45.131
1.8960	45.408
1.8920	45.000
1.8880	44.381
1.8840	44.032
1.8800	43.579
1.8760	43.391
1.8720	42.985
1.8680	42.949
1.8640	43.276
1.8600	44.362
1.8560	44.716
1.8520	44.634
1.8480	44.370
1.8440	43.623
1.8400	43.240
1.8360	43.316
1.8320	43.653
1.8280	43.901
1.8240	43.870
1.8200	43.517
1.8160	43.285
1.8120	43.192
1.8080	43.269
1.8040	43.246
1.8000	42.916
1.7960	42.916
1.7920	42.789
1.7880	42.600
1.7840	42.626
1.7800	42.525
1.7760	42.563
1.7720	42.550
1.7680	42.550
1.7640	42.437
1.7600	42.399
1.7560	42.449
1.7520	42.361
1.7480	42.337
1.7440	42.550
1.7400	42.739
1.7360	42.399
1.7320	42.474
1.7280	42.588
1.7240	42.626
1.7200	42.613
1.7160	42.423
1.7120	42.524
1.7080	42.121
1.7040	42.373
1.7000	42.348
1.6960	42.223
1.6920	42.260
1.6880	42.260
1.6840	42.006
1.6800	41.995
1.6760	41.958
1.6720	41.921
1.6680	41.847
1.6640	41.755
1.6600	41.852
1.6560	41.667
1.6520	41.616
1.6480	41.506
1.6440	41.506
1.6400	41.513
1.6360	41.440
1.6320	41.403
1.6280	41.536
1.6240	41.337
1.6200	41.227
1.6160	41.154
1.6120	41.227
1.6080	41.227
1.6040	41.315
1.6000	41.154
1.5960	40.890
1.5920	41.145
1.5880	41.218
1.5840	41.358
1.5800	41.145
1.5760	41.145
1.5720	40.947
1.5680	40.859
1.5640	40.895
1.5600	40.719
1.5560	40.802
1.5520	40.843
1.5480	41.212
1.5440	40.843
1.5400	40.699
1.5360	40.767
1.5320	40.628
1.5280	40.504
1.5240	40.275
1.5200	40.277
1.5160	40.455
1.5120	40.137
1.5080	39.996
1.5040	39.646
1.5000	39.400
1.4960	39.574
1.4920	39.962
1.4880	40.535
1.4840	40.043
1.4800	39.962
1.4760	39.785
1.4720	39.662
1.4680	39.592
1.4640	39.515
1.4600	39.680
1.4560	39.744
1.4520	39.761
1.4480	39.709
1.4440	39.394
1.4400	39.074
1.4360	39.074
1.4320	39.219
1.4280	39.368
1.4240	39.368
1.4200	39.333
1.4160	39.219
1.4120	38.801
1.4080	38.592
1.4040	38.499
1.4000	38.606
1.3960	39.020
1.3920	39.230
1.3880	39.425
1.3840	39.300
1.3800	39.016
1.3760	38.837
1.3720	39.432
1.3680	39.793
1.3640	39.367
1.3600	38.386
1.3560	38.542
1.3520	39.492
1.3480	39.607
1.3440	39.823
1.3400	39.176
1.3360	38.538
1.3320	38.271
1.3280	38.185
1.3240	38.264
1.3200	38.464
1.3160	38.532
1.3120	38.378
1.3080	38.191
1.3040	38.124
1.3000	37.884
1.2960	37.797
1.2920	37.721
1.2880	37.611
1.2840	37.524
1.2800	37.479
1.2760	37.556
1.2720	37.721
1.2680	37.821
1.2640	38.057
1.2600	38.078
1.2560	38.081
1.2520	37.888
1.2480	37.990
1.2440	38.080
1.2400	38.148
1.2360	38.126
1.2320	38.203
1.2280	37.631
1.2240	37.451
1.2200	37.305
1.2160	37.664
1.2120	37.819
1.2080	38.022
1.2040	37.943
1.2000	37.603
1.1960	37.109
1.1920	36.946
1.1880	36.882
1.1840	36.786
1.1800	36.809
1.1760	36.745
1.1720	36.682
1.1680	36.410
1.1640	36.172
1.1600	36.237
1.1560	35.910
1.1520	35.710
1.1480	36.009
1.1440	36.296
1.1400	36.550
1.1360	36.830
1.1320	36.589
1.1280	36.676
1.1240	36.265
1.1200	36.546
1.1160	36.643
1.1120	36.233
1.1080	36.201
1.1040	36.081
1.1000	35.845
1.0960	36.055
1.0920	35.914
1.0880	35.797
1.0840	35.944
1.0800	35.939
1.0760	36.122
1.0720	35.939
1.0680	35.797
1.0640	35.907
1.0600	35.735
1.0560	35.470
1.0520	35.371
1.0480	35.433
1.0440	35.320
1.0400	35.320
1.0360	35.382
1.0320	35.406
1.0280	35.283
1.0240	35.402
1.0200	35.266
1.0160	35.061
1.0120	35.201
1.0080	35.018
1.0040	34.896
1.0000	34.866
0.99600	34.929
0.99200	34.843
0.98800	34.782
0.98400	34.515
0.98000	34.482
0.97600	34.455
0.97200	34.397
0.96800	34.427
0.96400	34.397
0.96000	34.339
0.95600	34.487
0.95200	34.505
0.94800	34.239
0.94400	34.300
0.94000	34.328
0.93600	34.240
0.93200	34.240
0.92800	33.974
0.92400	33.915
0.92000	34.151
0.91600	33.916
0.91200	33.905
0.90800	33.934
0.90400	33.905
0.90000	33.935
0.89600	33.612
0.89200	33.641
0.88800	33.553
0.88400	33.650
0.88000	33.798
0.87600	33.768
0.87200	33.709
0.86800	33.591
0.86400	33.710
0.86000	33.820
0.85600	33.790
0.85200	33.791
0.84800	33.621
0.84400	33.701
0.84000	33.681
0.83600	33.732
0.83200	33.711
0.82800	33.621
0.82400	33.790
0.82000	33.581
0.81600	33.581
0.81200	33.847
0.80800	33.738
0.80400	33.532
0.80000	33.444
0.79900	33.444
0.79800	33.444
0.79700	33.611
0.79600	33.374
0.79500	33.444
0.79400	33.314
0.79300	33.285
0.79200	33.252
0.79100	33.252
0.79000	33.351
0.78900	33.251
0.78800	33.127
0.78700	33.221
0.78600	33.351
0.78500	33.061
0.78400	33.254
0.78300	33.287
0.78200	33.221
0.78100	33.055
0.78000	33.347
0.77900	33.381
0.77800	33.094
0.77700	33.028
0.77600	32.962
0.77500	33.174
0.77400	33.214
0.77300	33.028
0.77200	33.057
0.77100	33.061
0.77000	33.061
0.76900	33.057
0.76800	32.958
0.76700	33.154
0.76600	33.341
0.76500	33.057
0.76400	33.090
0.76300	33.057
0.76200	32.829
0.76100	32.982
0.76000	33.024
0.75900	32.994
0.75800	33.124
0.75700	32.963
0.75600	32.703
0.75500	32.671
0.75400	32.607
0.75300	32.930
0.75200	32.574
0.75100	32.638
0.75000	32.574
0.74900	32.671
0.74800	32.573
0.74700	32.827
0.74600	32.738
0.74500	32.664
0.74400	32.827
0.74300	32.664
0.74200	32.566
0.74100	32.926
0.74000	32.960
0.73900	32.858
0.73800	33.051
0.73700	32.891
0.73600	32.568
0.73500	32.568
0.73400	32.413
0.73300	32.730
0.73200	32.896
0.73100	32.829
0.73000	32.860
0.72900	32.862
0.72800	32.446
0.72700	32.569
0.72600	32.155
0.72500	32.569
0.72400	32.763
0.72300	32.566
0.72200	32.470
0.72100	32.536
0.72000	32.536
0.71900	32.246
0.71800	32.279
0.71700	32.344
0.71600	32.058
0.71500	32.246
0.71400	32.574
0.71300	32.541
0.71200	32.407
0.71100	32.052
0.71000	32.052
0.70900	32.020
0.70800	31.924
0.70700	32.181
0.70600	32.276
0.70500	32.506
0.70400	32.506
0.70300	32.341
0.70200	32.147
0.70100	32.112
0.70000	31.885
0.69900	31.717
0.69800	31.594
0.69700	31.734
0.69600	32.626
0.69500	32.523
0.69400	32.355
0.69300	32.153
0.69200	32.352
0.69100	32.653
0.69000	32.520
0.68900	32.388
0.68800	32.287
0.68700	32.253
0.68600	32.053
0.68500	32.355
0.68400	32.187
0.68300	32.355
0.68200	32.557
0.68100	32.589
0.68000	32.487
0.67900	32.086
0.67800	31.787
0.67700	32.021
0.67600	31.954
0.67500	32.054
0.67400	32.188
0.67300	32.054
0.67200	31.887
0.67100	32.389
0.67000	32.054
0.66900	31.953
0.66800	32.223
0.66700	32.290
0.66600	32.021
0.66500	31.954
0.66400	31.787
0.66300	32.021
0.66200	32.257
0.66100	32.022
0.66000	32.021
0.65900	31.920
0.65800	32.022
0.65700	32.124
0.65600	32.157
0.65500	32.022
0.65400	32.056
0.65300	32.022
0.65200	32.021
0.65100	31.852
0.65000	31.954
0.64900	31.921
0.64800	31.618
0.64700	31.820
0.64600	31.753
0.64500	31.820
0.64400	31.618
0.64300	31.719
0.64200	31.786
0.64100	31.854
0.64000	31.854
0.63900	31.651
0.63800	31.751
0.63700	31.584
0.63600	31.551
0.63500	31.518
0.63400	31.551
0.63300	31.551
0.63200	31.584
0.63100	31.417
0.63000	31.719
0.62900	31.719
0.62800	31.617
0.62700	31.213
0.62600	31.112
0.62500	31.213
0.62400	31.246
0.62300	31.380
0.62200	31.380
0.62100	31.245
0.62000	31.380
0.61900	31.380
0.61800	31.413
0.61700	31.346
0.61600	31.212
0.61500	31.044
0.61400	31.145
0.61300	31.079
0.61200	31.112
0.61100	31.112
0.61000	31.112
0.60900	31.112
0.60800	31.011
0.60700	30.740
0.60600	30.806
0.60500	30.839
0.60400	30.839
0.60300	30.699
0.60200	30.935
0.60100	30.863
0.60000	30.866
0.59900	30.833
0.59800	30.965
0.59700	31.032
0.59600	31.063
0.59500	31.165
0.59400	31.097
0.59300	30.924
0.59200	30.857
0.59100	30.754
0.59000	30.757
0.58900	30.890
0.58800	30.821
0.58700	30.857
0.58600	30.754
0.58500	30.551
0.58400	30.651
0.58300	30.751
0.58200	30.551
0.58100	30.821
0.58000	30.754
0.57900	30.717
0.57800	30.754
0.57700	30.651
0.57600	30.754
0.57500	30.857
0.57400	30.857
0.57300	30.800
0.57200	30.639
0.57100	30.603
0.57000	30.668
0.56900	30.636
0.56800	30.603
0.56700	30.502
0.56600	30.331
0.56500	30.230
0.56400	30.230
0.56300	30.096
0.56200	29.893
0.56100	29.754
0.56000	29.849
0.55900	28.905
0.55800	30.187
0.55700	29.999
0.55600	29.913
0.55500	29.791
0.55400	29.791
0.55300	29.628
0.55200	29.746
0.55100	29.736
0.55000	29.722
0.54900	29.933
0.54800	29.933
0.54700	29.716
0.54600	30.001
0.54500	29.654
0.54400	29.527
0.54300	29.679
0.54200	29.907
0.54100	29.996
0.54000	29.679
0.53900	29.420
0.53800	29.443
0.53700	29.491
0.53600	29.865
0.53500	29.964
0.53400	29.859
0.53300	29.536
0.53200	29.413
0.53100	29.344
0.53000	29.436
0.52900	29.269
0.52800	29.299
0.52700	29.208
0.52600	29.216
0.52500	29.338
0.52400	29.292
0.52300	29.186
0.52200	29.254
0.52100	29.216
0.52000	29.269
0.51900	29.522
0.51800	29.148
0.51700	28.920
0.51600	28.971
0.51500	28.760
0.51400	28.741
0.51300	28.760
0.51200	28.842
0.51100	28.959
0.51000	28.942
0.50900	29.200
0.50800	28.468
0.50700	28.764
0.50600	28.686
0.50500	28.665
0.50400	28.457
0.50300	28.574
0.50200	28.958
0.50100	28.665
0.50000	28.497
0.49900	28.457
0.49800	28.439
0.49700	28.556
0.49600	28.341
0.49500	28.429
0.49400	28.351
0.49300	27.928
0.49200	28.126
0.49100	28.045
0.49000	28.330
0.48900	28.185
0.48800	28.156
0.48700	27.903
0.48600	28.031
0.48500	27.834
0.48400	27.734
0.48300	27.948
0.48200	28.248
0.48100	28.034
0.48000	28.047
0.47900	27.864
0.47800	27.684
0.47700	27.684
0.47600	27.740
0.47500	27.712
0.47400	27.684
0.47300	27.600
0.47200	27.403
0.47100	27.559
0.47000	27.307
0.46900	27.128
0.46800	27.423
0.46700	27.182
0.46600	27.324
0.46500	27.436
0.46400	27.047
0.46300	27.587
0.46200	27.086
0.46100	27.113
0.46000	26.864
0.45900	26.988
0.45800	27.081
0.45700	26.985
0.45600	27.049
0.45500	26.787
0.45400	26.919
0.45300	26.525
0.45200	26.374
0.45100	26.406
0.45000	26.538
0.44900	26.614
0.44800	26.409
0.44700	26.644
0.44600	26.357
0.44500	26.122
0.44400	25.810
0.44300	26.201
0.44200	26.568
0.44100	26.435
0.44000	26.543
0.43900	26.172
0.43800	26.227
0.43700	26.256
0.43600	25.965
0.43500	25.962
0.43400	25.910
0.43300	25.962
0.43200	25.803
0.43100	25.910
0.43000	25.648
0.42900	26.116
0.42800	25.685
0.42700	25.617
0.42600	25.462
0.42500	25.171
0.42400	25.450
0.42300	25.372
0.42200	25.038
0.42100	24.821
0.42000	25.104
0.41900	25.133
0.41800	24.951
0.41700	24.951
0.41600	25.159
0.41500	25.055
0.41400	24.867
0.41300	24.636
0.41200	24.929
0.41100	24.835
0.41000	24.692
0.40900	24.538
0.40800	24.632
0.40700	24.703
0.40600	24.496
0.40500	24.411
0.40400	24.430
0.40300	24.331
0.40200	24.415
0.40100	24.076
0.40000	24.064
0.0000	
