Name: Fossiliferous Limestone 
Type:  Rocks
Class:  Sedimentary
Subclass: Limestone
Particle Size:  0 - 75 Micrometers
Sample No.:  limestone.1
Owner:  JHU
Wavelength Range:  All
Origin:  Sample No. 355,  from the Hunt and Salisbury Collection at 
the U.S. Geological Survey, Denver, Co.
Description: Sample consists of a homogeneous microcrystalline 
carbonate matrix, with scattered flecks of reddish brown material 
and abundant fossils (primarily small bivalves) with recrystallized 
calcite. Some bivalves still show laminar structure. Very minor 
quartz was also noted in this section.

Measurement:  Directional (10 Degree) Hemispherical Reflectance
First Column:  X
Second Column:  Y  
X Units:  Wavelength (micrometers)
Y Units:  Reflectance (percent)
First X Value:  14.0112
Last X Value:  0.4
Number of X Values:  2844
Additional Information:  None 

14.983	19.240
14.940	19.867
14.897	20.124
14.854	20.158
14.812	20.116
14.770	20.161
14.728	20.245
14.686	20.371
14.645	20.494
14.603	20.441
14.562	20.033
14.521	19.371
14.481	18.785
14.441	18.277
14.400	17.729
14.361	17.249
14.321	16.695
14.281	15.867
14.242	14.518
14.203	12.485
14.164	9.8980
14.126	7.1263
14.087	4.5211
14.049	2.5008
14.011	1.4391
13.973	1.6932
13.936	3.1906
13.899	5.5100
13.861	8.1642
13.824	10.764
13.788	12.931
13.751	14.520
13.715	15.649
13.679	16.546
13.643	17.347
13.607	18.047
13.571	18.644
13.536	19.174
13.500	19.611
13.465	19.961
13.430	20.226
13.396	20.431
13.361	20.597
13.327	20.703
13.293	20.764
13.259	20.810
13.225	20.810
13.191	20.757
13.158	20.629
13.124	20.414
13.091	20.105
13.058	19.713
13.026	19.264
12.993	18.794
12.960	18.302
12.928	17.822
12.896	17.408
12.864	17.147
12.832	17.101
12.800	17.299
12.769	17.694
12.737	18.177
12.706	18.612
12.675	18.914
12.644	19.034
12.614	18.973
12.583	18.733
12.552	18.416
12.522	18.199
12.492	18.276
12.462	18.774
12.432	19.692
12.402	20.890
12.373	22.178
12.343	23.340
12.314	24.284
12.285	25.006
12.256	25.563
12.227	26.004
12.198	26.348
12.169	26.586
12.141	26.771
12.113	26.905
12.084	27.017
12.056	27.110
12.028	27.189
12.000	27.245
11.973	27.317
11.945	27.459
11.918	27.592
11.890	26.500
11.863	23.552
11.836	20.341
11.809	18.201
11.782	17.480
11.755	18.183
11.729	20.058
11.702	22.243
11.676	22.938
11.650	21.590
11.624	19.544
11.598	17.209
11.572	14.387
11.546	11.275
11.520	8.3016
11.495	5.8370
11.469	4.1445
11.444	3.3164
11.419	3.1797
11.394	3.2614
11.369	3.2550
11.344	3.6882
11.319	5.2346
11.294	7.8668
11.270	11.197
11.245	14.726
11.221	17.844
11.197	19.981
11.173	20.958
11.149	21.282
11.125	21.459
11.101	21.509
11.077	21.432
11.054	21.270
11.030	21.081
11.007	20.929
10.983	20.849
10.960	20.836
10.937	20.869
10.914	20.938
10.891	21.019
10.868	21.060
10.846	21.063
10.823	21.017
10.800	20.924
10.778	20.795
10.756	20.636
10.733	20.468
10.711	20.315
10.689	20.198
10.667	20.135
10.645	20.093
10.623	20.045
10.602	19.966
10.580	19.828
10.558	19.616
10.537	19.349
10.516	19.049
10.494	18.718
10.473	18.353
10.452	17.949
10.431	17.498
10.410	16.999
10.389	16.448
10.368	15.860
10.348	15.257
10.327	14.645
10.306	14.023
10.286	13.389
10.266	12.759
10.245	12.148
10.225	11.570
10.205	11.049
10.185	10.590
10.165	10.189
10.145	9.8331
10.125	9.5039
10.106	9.2117
10.086	8.9576
10.066	8.7319
10.047	8.5294
10.027	8.3444
10.008	8.1739
9.9887	8.0155
9.9695	7.8644
9.9504	7.7185
9.9313	7.5772
9.9123	7.4268
9.8934	7.2830
9.8746	7.1575
9.8558	7.0545
9.8371	6.9809
9.8185	6.9259
9.7999	6.8736
9.7814	6.8331
9.7630	6.7871
9.7447	6.7443
9.7264	6.7192
9.7082	6.7225
9.6900	6.7485
9.6719	6.7881
9.6539	6.8518
9.6360	6.9527
9.6181	7.0597
9.6003	7.1708
9.5825	7.2961
9.5649	7.4265
9.5472	7.5506
9.5297	7.6714
9.5122	7.7889
9.4948	7.9127
9.4774	8.0302
9.4601	8.1498
9.4429	8.2980
9.4257	8.4681
9.4086	8.6618
9.3916	8.8851
9.3746	9.1302
9.3577	9.4023
9.3408	9.6796
9.3240	9.9463
9.3073	10.193
9.2906	10.363
9.2740	10.437
9.2574	10.446
9.2409	10.438
9.2245	10.473
9.2081	10.579
9.1918	10.776
9.1755	11.037
9.1593	11.286
9.1431	11.484
9.1270	11.642
9.1110	11.776
9.0950	11.895
9.0791	12.009
9.0632	12.128
9.0474	12.234
9.0316	12.318
9.0159	12.388
9.0003	12.449
8.9847	12.508
8.9691	12.562
8.9536	12.614
8.9382	12.667
8.9228	12.721
8.9075	12.781
8.8922	12.835
8.8770	12.888
8.8618	12.962
8.8467	13.069
8.8316	13.207
8.8166	13.371
8.8016	13.552
8.7867	13.747
8.7718	13.944
8.7570	14.142
8.7423	14.337
8.7275	14.521
8.7129	14.685
8.6982	14.826
8.6837	14.930
8.6692	14.966
8.6547	14.899
8.6403	14.729
8.6259	14.498
8.6116	14.280
8.5973	14.169
8.5830	14.238
8.5688	14.485
8.5547	14.840
8.5406	15.219
8.5266	15.563
8.5126	15.844
8.4986	16.082
8.4847	16.338
8.4708	16.641
8.4570	16.993
8.4432	17.383
8.4295	17.813
8.4158	18.280
8.4022	18.781
8.3886	19.322
8.3750	19.909
8.3615	20.512
8.3481	21.085
8.3347	21.618
8.3213	22.106
8.3079	22.541
8.2946	22.936
8.2814	23.319
8.2682	23.686
8.2550	24.022
8.2419	24.331
8.2288	24.611
8.2158	24.829
8.2028	24.952
8.1898	24.983
8.1769	24.957
8.1640	24.887
8.1512	24.794
8.1384	24.702
8.1256	24.608
8.1129	24.477
8.1002	24.286
8.0876	24.070
8.0750	23.894
8.0624	23.803
8.0499	23.824
8.0374	23.943
8.0250	24.122
8.0126	24.302
8.0002	24.421
7.9879	24.464
7.9756	24.416
7.9634	24.266
7.9512	24.026
7.9390	23.710
7.9268	23.369
7.9147	23.060
7.9027	22.824
7.8906	22.691
7.8786	22.645
7.8667	22.642
7.8548	22.602
7.8429	22.466
7.8310	22.226
7.8192	21.930
7.8075	21.643
7.7957	21.403
7.7840	21.233
7.7723	21.122
7.7607	21.016
7.7491	20.869
7.7375	20.647
7.7260	20.354
7.7145	19.987
7.7031	19.544
7.6916	19.041
7.6802	18.492
7.6689	17.921
7.6575	17.355
7.6462	16.800
7.6350	16.273
7.6238	15.785
7.6126	15.352
7.6014	14.981
7.5903	14.663
7.5792	14.401
7.5681	14.184
7.5571	13.992
7.5461	13.809
7.5351	13.629
7.5242	13.439
7.5133	13.228
7.5024	12.997
7.4916	12.746
7.4807	12.476
7.4700	12.180
7.4592	11.863
7.4485	11.540
7.4378	11.212
7.4272	10.884
7.4165	10.566
7.4059	10.251
7.3954	9.9202
7.3848	9.5598
7.3743	9.1745
7.3639	8.7631
7.3534	8.3250
7.3430	7.8665
7.3326	7.3936
7.3223	6.9169
7.3119	6.4506
7.3016	6.0199
7.2914	5.6402
7.2811	5.3059
7.2709	5.0212
7.2607	4.7787
7.2506	4.5563
7.2404	4.3513
7.2303	4.1611
7.2203	3.9875
7.2102	3.8374
7.2002	3.7216
7.1902	3.6548
7.1803	3.6259
7.1703	3.6188
7.1604	3.6259
7.1506	3.6481
7.1407	3.6984
7.1309	3.7938
7.1211	3.9330
7.1113	4.0929
7.1016	4.2447
7.0919	4.3643
7.0822	4.4282
7.0725	4.4391
7.0629	4.4225
7.0533	4.3944
7.0437	4.3626
7.0341	4.3235
7.0246	4.2890
7.0151	4.2565
7.0056	4.2186
6.9962	4.1869
6.9867	4.1623
6.9773	4.1424
6.9679	4.1277
6.9586	4.1076
6.9493	4.0898
6.9400	4.0754
6.9307	4.0623
6.9214	4.0711
6.9122	4.0948
6.9030	4.1329
6.8938	4.1644
6.8847	4.1777
6.8755	4.1879
6.8664	4.1926
6.8573	4.1947
6.8483	4.2051
6.8393	4.2217
6.8302	4.2430
6.8213	4.2587
6.8123	4.2691
6.8034	4.2835
6.7944	4.3041
6.7855	4.3333
6.7767	4.3555
6.7678	4.3728
6.7590	4.3986
6.7502	4.4339
6.7414	4.4682
6.7327	4.5097
6.7239	4.5627
6.7152	4.6179
6.7065	4.6641
6.6979	4.7046
6.6892	4.7626
6.6806	4.8441
6.6720	4.9322
6.6634	5.0293
6.6549	5.1306
6.6464	5.2395
6.6378	5.3554
6.6294	5.4794
6.6209	5.6222
6.6124	5.7849
6.6040	5.9543
6.5956	6.1245
6.5872	6.2884
6.5789	6.4445
6.5705	6.5906
6.5622	6.7286
6.5539	6.8561
6.5457	6.9747
6.5374	7.0983
6.5292	7.2267
6.5209	7.3446
6.5128	7.4588
6.5046	7.5888
6.4964	7.7441
6.4883	7.9383
6.4802	8.1898
6.4721	8.5176
6.4640	8.9010
6.4560	9.2898
6.4480	9.6469
6.4399	9.9150
6.4320	10.043
6.4240	10.033
6.4160	9.9081
6.4081	9.7085
6.4002	9.4712
6.3923	9.2166
6.3844	8.9692
6.3766	8.7170
6.3687	8.4347
6.3609	8.0974
6.3531	7.6835
6.3454	7.2179
6.3376	6.7376
6.3299	6.2742
6.3221	5.8647
6.3144	5.5386
6.3068	5.3113
6.2991	5.1787
6.2914	5.1363
6.2838	5.1768
6.2762	5.2623
6.2686	5.3499
6.2611	5.4025
6.2535	5.4086
6.2460	5.3781
6.2385	5.3319
6.2310	5.2845
6.2235	5.2324
6.2160	5.1749
6.2086	5.1183
6.2011	5.0605
6.1937	5.0091
6.1863	4.9793
6.1790	4.9746
6.1716	4.9933
6.1643	5.0257
6.1570	5.0655
6.1496	5.1166
6.1424	5.1754
6.1351	5.2433
6.1278	5.3267
6.1206	5.4162
6.1134	5.5128
6.1062	5.6102
6.0990	5.6987
6.0918	5.7930
6.0847	5.9007
6.0776	6.0163
6.0704	6.1409
6.0633	6.2844
6.0563	6.4565
6.0492	6.6526
6.0421	6.8627
6.0351	7.0912
6.0281	7.3406
6.0211	7.5949
6.0141	7.8474
6.0071	8.0939
6.0002	8.3333
5.9932	8.5604
5.9863	8.7593
5.9794	8.9407
5.9725	9.1240
5.9657	9.3144
5.9588	9.5160
5.9520	9.7274
5.9451	9.9543
5.9383	10.201
5.9315	10.456
5.9247	10.719
5.9180	10.981
5.9112	11.236
5.9045	11.477
5.8978	11.703
5.8911	11.910
5.8844	12.098
5.8777	12.272
5.8711	12.424
5.8644	12.545
5.8578	12.641
5.8512	12.710
5.8446	12.749
5.8380	12.770
5.8314	12.776
5.8249	12.775
5.8184	12.779
5.8118	12.791
5.8053	12.807
5.7988	12.816
5.7923	12.804
5.7859	12.773
5.7794	12.722
5.7730	12.671
5.7666	12.645
5.7602	12.670
5.7538	12.763
5.7474	12.925
5.7410	13.147
5.7347	13.405
5.7283	13.684
5.7220	13.982
5.7157	14.285
5.7094	14.591
5.7031	14.894
5.6969	15.199
5.6906	15.536
5.6844	15.914
5.6782	16.332
5.6719	16.813
5.6657	17.337
5.6596	17.847
5.6534	18.279
5.6472	18.573
5.6411	18.685
5.6349	18.547
5.6288	18.076
5.6227	17.226
5.6166	15.977
5.6106	14.301
5.6045	12.209
5.5984	9.8238
5.5924	7.4381
5.5864	5.3691
5.5804	3.7857
5.5744	2.7281
5.5684	2.2031
5.5624	2.2299
5.5564	2.8674
5.5505	4.2238
5.5445	6.3701
5.5386	9.2091
5.5327	12.429
5.5268	15.623
5.5209	18.474
5.5151	20.858
5.5092	22.821
5.5033	24.478
5.4975	25.912
5.4917	27.197
5.4859	28.382
5.4801	29.486
5.4743	30.530
5.4685	31.530
5.4628	32.494
5.4570	33.418
5.4513	34.297
5.4455	35.142
5.4398	35.956
5.4341	36.737
5.4284	37.498
5.4228	38.231
5.4171	38.923
5.4114	39.555
5.4058	40.129
5.4002	40.644
5.3945	41.103
5.3889	41.525
5.3833	41.924
5.3778	42.300
5.3722	42.665
5.3666	43.023
5.3611	43.387
5.3555	43.759
5.3500	44.148
5.3445	44.567
5.3390	45.007
5.3335	45.453
5.3280	45.909
5.3225	46.364
5.3171	46.810
5.3116	47.246
5.3062	47.673
5.3008	48.102
5.2954	48.525
5.2900	48.937
5.2846	49.349
5.2792	49.764
5.2738	50.180
5.2684	50.600
5.2631	51.025
5.2578	51.462
5.2524	51.907
5.2471	52.352
5.2418	52.795
5.2365	53.234
5.2312	53.651
5.2260	54.044
5.2207	54.412
5.2154	54.748
5.2102	55.064
5.2050	55.356
5.1998	55.628
5.1945	55.884
5.1893	56.102
5.1842	56.294
5.1790	56.469
5.1738	56.634
5.1686	56.797
5.1635	56.951
5.1584	57.109
5.1532	57.272
5.1481	57.419
5.1430	57.550
5.1379	57.676
5.1328	57.799
5.1277	57.845
5.1227	57.640
5.1176	56.936
5.1126	55.681
5.1075	54.342
5.1025	53.494
5.0975	53.442
5.0925	54.226
5.0875	55.626
5.0825	57.180
5.0775	58.354
5.0726	58.919
5.0676	59.134
5.0627	59.265
5.0577	59.365
5.0528	59.434
5.0479	59.484
5.0430	59.519
5.0380	59.543
5.0332	59.559
5.0283	59.573
5.0234	59.591
5.0185	59.615
5.0137	59.643
5.0088	59.675
5.0040	59.720
4.9992	59.775
4.9944	59.833
4.9896	59.905
4.9848	59.993
4.9800	60.089
4.9752	60.187
4.9704	60.289
4.9657	60.396
4.9609	60.492
4.9562	60.569
4.9514	60.644
4.9467	60.713
4.9420	60.760
4.9373	60.799
4.9326	60.853
4.9279	60.923
4.9232	61.004
4.9186	61.107
4.9139	61.234
4.9092	61.375
4.9046	61.514
4.9000	61.657
4.8953	61.800
4.8907	61.929
4.8861	62.044
4.8815	62.142
4.8769	62.226
4.8723	62.299
4.8678	62.368
4.8632	62.438
4.8586	62.506
4.8541	62.563
4.8495	62.619
4.8450	62.664
4.8405	62.702
4.8360	62.745
4.8315	62.789
4.8270	62.822
4.8225	62.847
4.8180	62.865
4.8135	62.879
4.8090	62.886
4.8046	62.895
4.8001	62.909
4.7957	62.913
4.7913	62.904
4.7868	62.885
4.7824	62.844
4.7780	62.763
4.7736	62.631
4.7692	62.456
4.7648	62.242
4.7605	61.993
4.7561	61.709
4.7517	61.388
4.7474	61.023
4.7431	60.598
4.7387	60.092
4.7344	59.487
4.7301	58.744
4.7258	57.817
4.7215	56.680
4.7172	55.346
4.7129	53.869
4.7086	52.334
4.7043	50.837
4.7000	49.467
4.6958	48.274
4.6915	47.277
4.6873	46.492
4.6831	45.911
4.6788	45.525
4.6746	45.310
4.6704	45.246
4.6662	45.339
4.6620	45.618
4.6578	46.113
4.6536	46.846
4.6495	47.810
4.6453	48.966
4.6411	50.224
4.6370	51.465
4.6328	52.616
4.6287	53.646
4.6246	54.548
4.6205	55.321
4.6163	55.967
4.6122	56.498
4.6081	56.922
4.6040	57.247
4.6000	57.508
4.5959	57.735
4.5918	57.936
4.5877	58.111
4.5837	58.260
4.5796	58.374
4.5756	58.458
4.5716	58.526
4.5675	58.592
4.5635	58.657
4.5595	58.710
4.5555	58.755
4.5515	58.802
4.5475	58.842
4.5435	58.873
4.5395	58.892
4.5356	58.910
4.5316	58.938
4.5276	58.969
4.5237	59.006
4.5197	59.056
4.5158	59.115
4.5119	59.183
4.5080	59.265
4.5040	59.380
4.5001	59.540
4.4962	59.739
4.4923	59.979
4.4884	60.264
4.4846	60.580
4.4807	60.921
4.4768	61.277
4.4730	61.626
4.4691	61.956
4.4652	62.257
4.4614	62.527
4.4576	62.775
4.4537	63.019
4.4499	63.274
4.4461	63.541
4.4423	63.811
4.4385	64.086
4.4347	64.357
4.4309	64.609
4.4271	64.834
4.4233	65.028
4.4196	65.203
4.4158	65.353
4.4120	65.478
4.4083	65.581
4.4045	65.668
4.4008	65.744
4.3971	65.820
4.3934	65.902
4.3896	65.994
4.3859	66.079
4.3822	66.146
4.3785	66.178
4.3748	66.164
4.3711	66.104
4.3674	65.994
4.3638	65.830
4.3601	65.622
4.3564	65.400
4.3528	65.203
4.3491	65.046
4.3455	64.931
4.3418	64.854
4.3382	64.807
4.3346	64.775
4.3310	64.748
4.3273	64.716
4.3237	64.683
4.3201	64.643
4.3165	64.595
4.3129	64.551
4.3094	64.537
4.3058	64.553
4.3022	64.572
4.2986	64.534
4.2951	64.387
4.2915	64.122
4.2880	63.753
4.2844	63.312
4.2809	62.858
4.2774	62.458
4.2738	62.183
4.2703	62.070
4.2668	62.119
4.2633	62.319
4.2598	62.624
4.2563	62.959
4.2528	63.259
4.2493	63.491
4.2458	63.654
4.2424	63.763
4.2389	63.828
4.2354	63.859
4.2320	63.867
4.2285	63.860
4.2251	63.852
4.2216	63.848
4.2182	63.843
4.2148	63.836
4.2113	63.816
4.2079	63.773
4.2045	63.712
4.2011	63.628
4.1977	63.523
4.1943	63.399
4.1909	63.262
4.1875	63.113
4.1841	62.956
4.1808	62.794
4.1774	62.634
4.1740	62.469
4.1707	62.292
4.1673	62.100
4.1640	61.895
4.1606	61.672
4.1573	61.426
4.1540	61.153
4.1506	60.857
4.1473	60.545
4.1440	60.202
4.1407	59.827
4.1374	59.435
4.1341	59.025
4.1308	58.600
4.1275	58.165
4.1242	57.720
4.1209	57.268
4.1177	56.806
4.1144	56.328
4.1111	55.844
4.1079	55.360
4.1046	54.874
4.1014	54.382
4.0981	53.875
4.0949	53.345
4.0917	52.785
4.0884	52.186
4.0852	51.548
4.0820	50.867
4.0788	50.131
4.0756	49.346
4.0724	48.524
4.0692	47.669
4.0660	46.786
4.0628	45.867
4.0596	44.881
4.0565	43.786
4.0533	42.515
4.0501	41.016
4.0470	39.266
4.0438	37.306
4.0406	35.230
4.0375	33.133
4.0344	31.094
4.0312	29.166
4.0281	27.366
4.0250	25.675
4.0218	24.046
4.0187	22.435
4.0156	20.807
4.0125	19.140
4.0094	17.438
4.0063	15.742
4.0032	14.112
4.0001	12.613
3.9970	11.286
3.9940	10.153
3.9909	9.2214
3.9878	8.5043
3.9847	8.0044
3.9817	7.7081
3.9786	7.5779
3.9756	7.5857
3.9725	7.6984
3.9695	7.8886
3.9665	8.1581
3.9634	8.5332
3.9604	9.0452
3.9574	9.7227
3.9544	10.578
3.9513	11.627
3.9483	12.890
3.9453	14.329
3.9423	15.813
3.9393	17.163
3.9363	18.253
3.9333	19.048
3.9304	19.578
3.9274	19.933
3.9244	20.246
3.9214	20.593
3.9185	20.955
3.9155	21.279
3.9126	21.542
3.9096	21.755
3.9067	21.940
3.9037	22.107
3.9008	22.262
3.8979	22.402
3.8949	22.536
3.8920	22.672
3.8891	22.803
3.8862	22.934
3.8833	23.063
3.8804	23.181
3.8775	23.277
3.8746	23.358
3.8717	23.433
3.8688	23.511
3.8659	23.607
3.8630	23.728
3.8601	23.871
3.8573	24.032
3.8544	24.205
3.8515	24.398
3.8487	24.624
3.8458	24.914
3.8430	25.314
3.8401	25.860
3.8373	26.582
3.8344	27.493
3.8316	28.556
3.8288	29.728
3.8259	30.960
3.8231	32.221
3.8203	33.502
3.8175	34.814
3.8147	36.179
3.8119	37.621
3.8091	39.167
3.8063	40.849
3.8035	42.679
3.8007	44.646
3.7979	46.714
3.7951	48.800
3.7924	50.789
3.7896	52.570
3.7868	54.083
3.7841	55.308
3.7813	56.279
3.7785	57.048
3.7758	57.675
3.7730	58.203
3.7703	58.656
3.7676	59.051
3.7648	59.388
3.7621	59.667
3.7594	59.896
3.7566	60.083
3.7539	60.235
3.7512	60.374
3.7485	60.526
3.7458	60.707
3.7431	60.911
3.7404	61.128
3.7377	61.346
3.7350	61.560
3.7323	61.752
3.7296	61.919
3.7269	62.062
3.7242	62.166
3.7216	62.244
3.7189	62.309
3.7162	62.362
3.7136	62.414
3.7109	62.467
3.7083	62.521
3.7056	62.564
3.7030	62.591
3.7003	62.607
3.6977	62.610
3.6950	62.606
3.6924	62.601
3.6898	62.595
3.6872	62.577
3.6845	62.556
3.6819	62.520
3.6793	62.462
3.6767	62.395
3.6741	62.325
3.6715	62.254
3.6689	62.186
3.6663	62.118
3.6637	62.052
3.6611	61.966
3.6585	61.860
3.6560	61.752
3.6534	61.636
3.6508	61.519
3.6482	61.405
3.6457	61.294
3.6431	61.177
3.6406	61.038
3.6380	60.886
3.6355	60.737
3.6329	60.595
3.6304	60.459
3.6278	60.318
3.6253	60.176
3.6227	60.019
3.6202	59.835
3.6177	59.644
3.6152	59.449
3.6127	59.246
3.6101	59.025
3.6076	58.782
3.6051	58.512
3.6026	58.204
3.6001	57.864
3.5976	57.494
3.5951	57.084
3.5926	56.619
3.5901	56.096
3.5876	55.512
3.5852	54.845
3.5827	54.080
3.5802	53.259
3.5777	52.458
3.5753	51.749
3.5728	51.197
3.5704	50.857
3.5679	50.692
3.5654	50.602
3.5630	50.486
3.5605	50.284
3.5581	49.978
3.5557	49.548
3.5532	48.998
3.5508	48.360
3.5484	47.620
3.5459	46.770
3.5435	45.817
3.5411	44.749
3.5387	43.563
3.5363	42.228
3.5338	40.723
3.5314	39.037
3.5290	37.170
3.5266	35.144
3.5242	33.034
3.5218	30.952
3.5195	29.019
3.5171	27.312
3.5147	25.880
3.5123	24.722
3.5099	23.774
3.5075	22.966
3.5052	22.249
3.5028	21.592
3.5004	20.966
3.4981	20.346
3.4957	19.722
3.4934	19.095
3.4910	18.467
3.4887	17.864
3.4863	17.298
3.4840	16.790
3.4816	16.378
3.4793	16.125
3.4770	16.119
3.4746	16.453
3.4723	17.201
3.4700	18.340
3.4677	19.745
3.4653	21.241
3.4630	22.644
3.4607	23.809
3.4584	24.688
3.4561	25.302
3.4538	25.720
3.4515	26.009
3.4492	26.225
3.4469	26.388
3.4446	26.505
3.4423	26.592
3.4400	26.666
3.4378	26.724
3.4355	26.764
3.4332	26.785
3.4309	26.795
3.4287	26.774
3.4264	26.733
3.4241	26.682
3.4219	26.633
3.4196	26.590
3.4174	26.555
3.4151	26.507
3.4129	26.451
3.4106	26.386
3.4084	26.303
3.4061	26.201
3.4039	26.097
3.4017	25.995
3.3994	25.895
3.3972	25.781
3.3950	25.661
3.3928	25.536
3.3906	25.390
3.3883	25.228
3.3861	25.066
3.3839	24.914
3.3817	24.777
3.3795	24.652
3.3773	24.557
3.3751	24.488
3.3729	24.417
3.3707	24.320
3.3685	24.166
3.3663	23.925
3.3641	23.572
3.3620	23.095
3.3598	22.526
3.3576	21.920
3.3554	21.351
3.3533	20.920
3.3511	20.760
3.3489	21.059
3.3468	21.992
3.3446	23.632
3.3425	25.927
3.3403	28.658
3.3382	31.519
3.3360	34.212
3.3339	36.529
3.3317	38.405
3.3296	39.882
3.3274	41.053
3.3253	42.004
3.3232	42.786
3.3210	43.444
3.3189	44.008
3.3168	44.488
3.3147	44.897
3.3126	45.252
3.3104	45.561
3.3083	45.824
3.3062	46.053
3.3041	46.265
3.3020	46.462
3.2999	46.649
3.2978	46.813
3.2957	46.963
3.2936	47.106
3.2915	47.216
3.2894	47.292
3.2874	47.359
3.2853	47.432
3.2832	47.515
3.2811	47.587
3.2790	47.648
3.2770	47.707
3.2749	47.745
3.2728	47.774
3.2708	47.798
3.2687	47.811
3.2666	47.822
3.2646	47.830
3.2625	47.827
3.2605	47.824
3.2584	47.828
3.2564	47.829
3.2543	47.817
3.2523	47.790
3.2503	47.758
3.2482	47.715
3.2462	47.661
3.2442	47.611
3.2421	47.567
3.2401	47.514
3.2381	47.461
3.2361	47.407
3.2340	47.351
3.2320	47.291
3.2300	47.228
3.2280	47.177
3.2260	47.125
3.2240	47.057
3.2220	46.984
3.2200	46.899
3.2180	46.811
3.2160	46.735
3.2140	46.666
3.2120	46.595
3.2100	46.524
3.2080	46.451
3.2060	46.364
3.2041	46.264
3.2021	46.175
3.2001	46.095
3.1981	46.008
3.1961	45.904
3.1942	45.807
3.1922	45.718
3.1902	45.618
3.1883	45.515
3.1863	45.411
3.1844	45.294
3.1824	45.176
3.1805	45.052
3.1785	44.923
3.1766	44.801
3.1746	44.684
3.1727	44.558
3.1707	44.402
3.1688	44.233
3.1669	44.061
3.1649	43.863
3.1630	43.643
3.1611	43.430
3.1591	43.236
3.1572	43.056
3.1553	42.898
3.1534	42.780
3.1515	42.684
3.1495	42.597
3.1476	42.522
3.1457	42.465
3.1438	42.417
3.1419	42.365
3.1400	42.317
3.1381	42.279
3.1362	42.238
3.1343	42.191
3.1324	42.138
3.1305	42.079
3.1286	42.007
3.1268	41.921
3.1249	41.818
3.1230	41.703
3.1211	41.572
3.1192	41.419
3.1174	41.257
3.1155	41.100
3.1136	40.959
3.1117	40.842
3.1099	40.751
3.1080	40.691
3.1061	40.661
3.1043	40.649
3.1024	40.647
3.1006	40.649
3.0987	40.663
3.0969	40.681
3.0950	40.700
3.0932	40.722
3.0913	40.750
3.0895	40.774
3.0876	40.783
3.0858	40.788
3.0840	40.796
3.0821	40.795
3.0803	40.793
3.0785	40.789
3.0766	40.773
3.0748	40.742
3.0730	40.718
3.0712	40.708
3.0694	40.688
3.0675	40.660
3.0657	40.651
3.0639	40.650
3.0621	40.642
3.0603	40.630
3.0585	40.623
3.0567	40.608
3.0549	40.590
3.0531	40.573
3.0513	40.550
3.0495	40.540
3.0477	40.545
3.0459	40.538
3.0441	40.520
3.0423	40.519
3.0406	40.532
3.0388	40.532
3.0370	40.505
3.0352	40.471
3.0334	40.445
3.0317	40.415
3.0299	40.393
3.0281	40.386
3.0264	40.383
3.0246	40.380
3.0228	40.367
3.0211	40.350
3.0193	40.331
3.0176	40.298
3.0158	40.256
3.0140	40.206
3.0123	40.180
3.0105	40.172
3.0088	40.160
3.0070	40.148
3.0053	40.122
3.0036	40.066
3.0018	40.010
3.0001	39.978
2.9984	39.960
2.9966	39.941
2.9949	39.924
2.9932	39.909
2.9914	39.896
2.9897	39.875
2.9880	39.848
2.9863	39.820
2.9845	39.781
2.9828	39.736
2.9811	39.704
2.9794	39.674
2.9777	39.643
2.9760	39.618
2.9743	39.595
2.9726	39.571
2.9709	39.540
2.9692	39.517
2.9675	39.494
2.9658	39.459
2.9641	39.423
2.9624	39.399
2.9607	39.382
2.9590	39.372
2.9573	39.357
2.9556	39.336
2.9539	39.303
2.9523	39.276
2.9506	39.278
2.9489	39.284
2.9472	39.281
2.9455	39.295
2.9439	39.309
2.9422	39.306
2.9405	39.303
2.9389	39.321
2.9372	39.353
2.9355	39.360
2.9339	39.362
2.9322	39.378
2.9306	39.397
2.9289	39.414
2.9272	39.444
2.9256	39.490
2.9239	39.537
2.9223	39.572
2.9207	39.610
2.9190	39.642
2.9174	39.668
2.9157	39.699
2.9141	39.738
2.9124	39.791
2.9108	39.846
2.9092	39.899
2.9075	39.957
2.9059	40.003
2.9043	40.045
2.9027	40.096
2.9010	40.148
2.8994	40.202
2.8978	40.256
2.8962	40.321
2.8946	40.404
2.8929	40.481
2.8913	40.559
2.8897	40.640
2.8881	40.708
2.8865	40.780
2.8849	40.854
2.8833	40.919
2.8817	40.995
2.8801	41.083
2.8785	41.166
2.8769	41.245
2.8753	41.333
2.8737	41.430
2.8721	41.504
2.8705	41.557
2.8689	41.640
2.8673	41.736
2.8658	41.823
2.8642	41.910
2.8626	42.018
2.8610	42.125
2.8594	42.196
2.8579	42.256
2.8563	42.339
2.8547	42.430
2.8531	42.513
2.8516	42.588
2.8500	42.667
2.8484	42.736
2.8469	42.780
2.8453	42.828
2.8437	42.870
2.8422	42.912
2.8406	42.929
2.8391	42.929
2.8375	42.941
2.8360	42.943
2.8344	42.934
2.8329	42.926
2.8313	42.905
2.8298	42.878
2.8282	42.837
2.8267	42.795
2.8252	42.780
2.8236	42.785
2.8221	42.815
2.8205	42.877
2.8190	42.949
2.8175	43.020
2.8159	43.076
2.8144	43.114
2.8129	43.143
2.8114	43.170
2.8098	43.194
2.8083	43.199
2.8068	43.159
2.8053	43.100
2.8038	43.032
2.8022	42.961
2.8007	42.887
2.7992	42.794
2.7977	42.676
2.7962	42.519
2.7947	42.299
2.7932	42.057
2.7917	41.821
2.7902	41.599
2.7887	41.414
2.7872	41.265
2.7857	41.152
2.7842	41.065
2.7827	40.971
2.7812	40.863
2.7797	40.740
2.7782	40.605
2.7767	40.483
2.7752	40.360
2.7738	40.225
2.7723	40.095
2.7708	39.981
2.7693	39.912
2.7678	39.887
2.7664	39.919
2.7649	40.037
2.7634	40.215
2.7619	40.429
2.7605	40.641
2.7590	40.861
2.7575	41.137
2.7561	41.468
2.7546	41.875
2.7531	42.370
2.7517	42.930
2.7502	43.537
2.7488	44.162
2.7473	44.792
2.7458	45.430
2.7444	46.069
2.7429	46.723
2.7415	47.403
2.7400	48.091
2.7386	48.812
2.7371	49.581
2.7357	50.387
2.7343	51.214
2.7328	52.058
2.7314	52.938
2.7299	53.849
2.7285	54.756
2.7271	55.716
2.7256	56.717
2.7242	57.728
2.7228	58.783
2.7213	59.877
2.7199	61.003
2.7185	62.113
2.7171	63.179
2.7156	64.190
2.7142	65.084
2.7128	65.865
2.7114	66.581
2.7100	67.243
2.7085	67.877
2.7071	68.499
2.7057	69.122
2.7043	69.748
2.7029	70.375
2.7015	71.014
2.7001	71.635
2.6987	72.205
2.6973	72.737
2.6959	73.273
2.6945	73.817
2.6931	74.371
2.6917	74.930
2.6903	75.476
2.6889	75.963
2.6875	76.356
2.6861	76.702
2.6847	77.039
2.6833	77.328
2.6819	77.575
2.6805	77.789
2.6791	77.989
2.6778	78.196
2.6764	78.431
2.6750	78.627
2.6736	78.791
2.6722	78.973
2.6709	79.127
2.6695	79.225
2.6681	79.352
2.6667	79.556
2.6654	79.800
2.6640	79.980
2.6626	80.141
2.6613	80.339
2.6599	80.476
2.6585	80.555
2.6572	80.633
2.6558	80.714
2.6545	80.784
2.6531	80.860
2.6517	80.958
2.6504	81.062
2.6490	81.136
2.6477	81.206
2.6463	81.263
2.6450	81.297
2.6436	81.311
2.6423	81.343
2.6409	81.395
2.6396	81.439
2.6382	81.473
2.6369	81.528
2.6356	81.578
2.6342	81.571
2.6329	81.531
2.6315	81.508
2.6302	81.481
2.6289	81.488
2.6275	81.535
2.6262	81.609
2.6249	81.668
2.6236	81.659
2.6222	81.644
2.6209	81.612
2.6196	81.553
2.6183	81.544
2.6169	81.582
2.6156	81.654
2.6143	81.710
2.6130	81.733
2.6117	81.758
2.6103	81.734
2.6090	81.654
2.6077	81.586
2.6064	81.542
2.6051	81.531
2.6038	81.528
2.6025	81.548
2.6012	81.614
2.5999	81.635
2.5986	81.511
2.5973	81.326
2.5960	81.179
2.5947	81.093
2.5934	81.049
2.5921	81.055
2.5908	81.104
2.5895	81.120
2.5882	80.998
2.5869	80.809
2.5856	80.671
2.5843	80.584
2.5830	80.533
2.5817	80.502
2.5805	80.481
2.5792	80.465
2.5779	80.387
2.5766	80.248
2.5753	80.121
2.5741	79.993
2.5728	79.854
2.5715	79.708
2.5702	79.566
2.5690	79.414
2.5677	79.208
2.5664	78.954
2.5651	78.670
2.5639	78.353
2.5626	78.001
2.5613	77.629
2.5601	77.255
2.5588	76.854
2.5575	76.390
2.5563	75.849
2.5550	75.242
2.5538	74.618
2.5525	73.991
2.5513	73.351
2.5500	72.715
2.5487	72.090
2.5475	71.446
2.5462	70.783
2.5450	70.150
2.5437	69.579
2.5425	69.079
2.5413	68.655
2.5400	68.319
2.5388	68.072
2.5375	67.915
2.5363	67.843
2.5350	67.858
2.5338	67.949
2.5326	68.107
2.5313	68.338
2.5301	68.628
2.5289	68.947
2.5276	69.303
2.5264	69.676
2.5252	70.049
2.5239	70.410
2.5227	70.754
2.5215	71.091
2.5202	71.419
2.5190	71.696
2.5178	71.938
2.5166	72.157
2.5154	72.357
2.5141	72.519
2.5129	72.647
2.5117	72.769
2.5105	72.894
2.5093	73.001
2.5081	73.091
2.5068	73.160
2.5056	73.228
2.5044	73.292
2.5032	73.344
2.5020	73.407
2.5008	73.483
2.4996	73.557
2.4984	73.620
2.4972	73.675
2.4960	73.729
2.4948	73.797
2.4936	73.870
2.4924	73.958
2.4912	74.064
2.4900	74.163
2.4888	74.259
2.4876	74.381
2.4864	74.506
2.4852	74.646
2.4840	74.810
2.4828	74.985
2.4816	75.169
2.4805	75.346
2.4793	75.523
2.4781	75.718
2.4769	75.930
2.4757	76.157
2.4745	76.390
2.4734	76.634
2.4722	76.892
2.4710	77.152
2.4698	77.415
2.4686	77.671
2.4675	77.922
2.4663	78.157
2.4651	78.362
2.4640	78.553
2.4628	78.740
2.4616	78.927
2.4604	79.109
2.4593	79.277
2.4581	79.441
2.4569	79.602
2.4558	79.755
2.4546	79.895
2.4535	80.027
2.4523	80.171
2.4511	80.303
2.4500	80.430
2.4488	80.551
2.4477	80.669
2.4465	80.788
2.4454	80.898
2.4442	81.002
2.4431	81.105
2.4419	81.207
2.4408	81.311
2.4396	81.413
2.4385	81.509
2.4373	81.607
2.4362	81.715
2.4350	81.813
2.4339	81.900
2.4327	81.997
2.4316	82.080
2.4305	82.156
2.4293	82.230
2.4282	82.298
2.4270	82.366
2.4259	82.438
2.4248	82.511
2.4236	82.584
2.4225	82.652
2.4214	82.735
2.4202	82.827
2.4191	82.908
2.4180	82.977
2.4169	83.044
2.4157	83.103
2.4146	83.149
2.4135	83.183
2.4124	83.216
2.4112	83.258
2.4101	83.296
2.4090	83.313
2.4079	83.319
2.4068	83.329
2.4056	83.345
2.4045	83.371
2.4034	83.391
2.4023	83.404
2.4012	83.411
2.4001	83.419
2.3990	83.422
2.3979	83.430
2.3967	83.454
2.3956	83.495
2.3945	83.530
2.3934	83.555
2.3923	83.582
2.3912	83.616
2.3901	83.648
2.3890	83.661
2.3879	83.652
2.3868	83.628
2.3857	83.596
2.3846	83.555
2.3835	83.506
2.3824	83.464
2.3813	83.439
2.3802	83.403
2.3791	83.351
2.3781	83.295
2.3770	83.215
2.3759	83.111
2.3748	83.001
2.3737	82.903
2.3726	82.802
2.3715	82.668
2.3704	82.521
2.3694	82.375
2.3683	82.212
2.3672	82.032
2.3661	81.846
2.3650	81.654
2.3640	81.418
2.3629	81.129
2.3618	80.825
2.3607	80.505
2.3597	80.172
2.3586	79.830
2.3575	79.498
2.3564	79.167
2.3554	78.830
2.3543	78.500
2.3532	78.176
2.3522	77.864
2.3511	77.566
2.3500	77.289
2.3490	77.039
2.3479	76.798
2.3468	76.573
2.3458	76.384
2.3447	76.233
2.3436	76.117
2.3426	76.022
2.3415	75.959
2.3405	75.922
2.3394	75.895
2.3384	75.890
2.3373	75.934
2.3363	76.018
2.3352	76.119
2.3342	76.236
2.3331	76.375
2.3321	76.540
2.3310	76.724
2.3300	76.921
2.3289	77.114
2.3279	77.301
2.3268	77.490
2.3258	77.669
2.3247	77.836
2.3237	78.019
2.3226	78.197
2.3216	78.344
2.3206	78.473
2.3195	78.588
2.3185	78.698
2.3175	78.797
2.3164	78.880
2.3154	78.968
2.3144	79.068
2.3133	79.175
2.3123	79.284
2.3113	79.373
2.3102	79.445
2.3092	79.511
2.3082	79.559
2.3071	79.589
2.3061	79.626
2.3051	79.679
2.3041	79.746
2.3030	79.796
2.3020	79.838
2.3010	79.909
2.3000	79.999
2.2990	80.071
2.2979	80.136
2.2969	80.220
2.2959	80.308
2.2949	80.377
2.2939	80.448
2.2929	80.528
2.2918	80.621
2.2908	80.706
2.2898	80.789
2.2888	80.882
2.2878	80.975
2.2868	81.089
2.2858	81.216
2.2848	81.330
2.2838	81.444
2.2828	81.551
2.2818	81.660
2.2808	81.784
2.2798	81.913
2.2787	82.056
2.2777	82.203
2.2767	82.327
2.2757	82.428
2.2747	82.526
2.2738	82.638
2.2728	82.759
2.2718	82.863
2.2708	82.952
2.2698	83.034
2.2688	83.100
2.2678	83.161
2.2668	83.235
2.2658	83.329
2.2648	83.411
2.2638	83.465
2.2628	83.511
2.2618	83.556
2.2609	83.611
2.2599	83.669
2.2589	83.723
2.2579	83.774
2.2569	83.795
2.2559	83.838
2.2550	83.910
2.2540	83.964
2.2530	84.019
2.2520	84.061
2.2510	84.096
2.2501	84.118
2.2491	84.141
2.2481	84.213
2.2471	84.287
2.2462	84.326
2.2452	84.345
2.2442	84.350
2.2433	84.384
2.2423	84.430
2.2413	84.491
2.2403	84.562
2.2394	84.606
2.2384	84.634
2.2374	84.646
2.2365	84.648
2.2355	84.670
2.2345	84.685
2.2336	84.689
2.2326	84.711
2.2317	84.740
2.2307	84.771
2.2297	84.793
2.2288	84.803
2.2278	84.833
2.2269	84.855
2.2259	84.856
2.2250	84.870
2.2240	84.892
2.2231	84.906
2.2221	84.893
2.2211	84.887
2.2202	84.913
2.2192	84.940
2.2183	84.950
2.2173	84.969
2.2164	85.006
2.2155	85.034
2.2145	85.045
2.2136	85.075
2.2126	85.118
2.2117	85.145
2.2107	85.159
2.2098	85.167
2.2088	85.173
2.2079	85.172
2.2070	85.175
2.2060	85.221
2.2051	85.283
2.2041	85.332
2.2032	85.375
2.2023	85.412
2.2013	85.434
2.2004	85.443
2.1995	85.460
2.1985	85.509
2.1976	85.551
2.1967	85.577
2.1957	85.603
2.1948	85.629
2.1939	85.637
2.1930	85.639
2.1920	85.666
2.1911	85.720
2.1902	85.740
2.1893	85.748
2.1883	85.779
2.1874	85.801
2.1865	85.811
2.1856	85.823
2.1846	85.849
2.1837	85.866
2.1828	85.852
2.1819	85.828
2.1810	85.832
2.1800	85.831
2.1791	85.819
2.1782	85.820
2.1773	85.838
2.1764	85.846
2.1755	85.860
2.1746	85.878
2.1736	85.884
2.1727	85.876
2.1718	85.869
2.1709	85.872
2.1700	85.880
2.1691	85.873
2.1682	85.855
2.1673	85.824
2.1664	85.765
2.1655	85.724
2.1646	85.703
2.1637	85.692
2.1628	85.725
2.1619	85.784
2.1610	85.824
2.1601	85.837
2.1592	85.815
2.1583	85.779
2.1574	85.734
2.1565	85.678
2.1556	85.648
2.1547	85.667
2.1538	85.710
2.1529	85.743
2.1520	85.765
2.1511	85.779
2.1502	85.795
2.1493	85.812
2.1484	85.830
2.1475	85.861
2.1466	85.891
2.1458	85.901
2.1449	85.916
2.1440	85.929
2.1431	85.957
2.1422	86.014
2.1413	86.054
2.1404	86.076
2.1396	86.085
2.1387	86.095
2.1378	86.115
2.1369	86.126
2.1360	86.133
2.1352	86.142
2.1343	86.145
2.1334	86.151
2.1325	86.164
2.1316	86.186
2.1308	86.221
2.1299	86.245
2.1290	86.254
2.1281	86.275
2.1273	86.308
2.1264	86.319
2.1255	86.298
2.1247	86.273
2.1238	86.262
2.1229	86.273
2.1220	86.299
2.1212	86.332
2.1203	86.357
2.1194	86.355
2.1186	86.336
2.1177	86.320
2.1168	86.309
2.1160	86.310
2.1151	86.331
2.1143	86.327
2.1134	86.305
2.1125	86.285
2.1117	86.294
2.1108	86.304
2.1100	86.307
2.1091	86.299
2.1082	86.285
2.1074	86.271
2.1065	86.285
2.1057	86.326
2.1048	86.386
2.1040	86.409
2.1031	86.405
2.1023	86.388
2.1014	86.343
2.1005	86.325
2.0997	86.339
2.0988	86.367
2.0980	86.404
2.0971	86.427
2.0963	86.446
2.0955	86.456
2.0946	86.447
2.0938	86.436
2.0929	86.416
2.0921	86.389
2.0912	86.384
2.0904	86.391
2.0895	86.401
2.0887	86.403
2.0879	86.407
2.0870	86.403
2.0862	86.383
2.0853	86.372
2.0845	86.384
2.0837	86.411
2.0828	86.451
2.0820	86.497
2.0812	86.485
2.0803	86.443
2.0795	86.334
2.0760	86.334
2.0720	87.006
2.0680	86.684
2.0640	86.355
2.0600	85.901
2.0560	86.462
2.0520	86.834
2.0480	86.242
2.0440	86.519
2.0400	85.945
2.0360	85.684
2.0320	85.223
2.0280	85.009
2.0240	84.522
2.0200	84.291
2.0160	84.291
2.0120	84.474
2.0080	84.097
2.0040	84.129
2.0000	83.235
1.9960	82.421
1.9920	82.321
1.9880	82.377
1.9840	82.213
1.9800	81.867
1.9760	82.012
1.9720	82.120
1.9680	81.596
1.9640	81.578
1.9600	81.272
1.9560	81.129
1.9520	81.687
1.9480	81.415
1.9440	81.071
1.9400	80.618
1.9360	80.145
1.9320	79.774
1.9280	80.387
1.9240	80.507
1.9200	80.376
1.9160	80.283
1.9120	80.066
1.9080	80.429
1.9040	80.837
1.9000	82.000
1.8960	83.197
1.8920	83.648
1.8880	83.165
1.8840	83.454
1.8800	83.952
1.8760	83.006
1.8720	83.544
1.8680	83.168
1.8640	83.922
1.8600	83.309
1.8560	83.530
1.8520	83.200
1.8480	83.096
1.8440	83.665
1.8400	83.845
1.8360	83.966
1.8320	83.639
1.8280	83.923
1.8240	83.857
1.8200	83.637
1.8160	83.842
1.8120	83.336
1.8080	83.568
1.8040	83.770
1.8000	83.745
1.7960	83.745
1.7920	83.673
1.7880	82.874
1.7840	82.824
1.7800	82.879
1.7760	82.950
1.7720	83.005
1.7680	82.917
1.7640	82.526
1.7600	82.455
1.7560	82.648
1.7520	82.736
1.7480	82.522
1.7440	82.593
1.7400	83.039
1.7360	82.807
1.7320	82.950
1.7280	83.077
1.7240	83.238
1.7200	83.294
1.7160	83.439
1.7120	83.560
1.7080	83.304
1.7040	83.536
1.7000	83.055
1.6960	82.895
1.6920	82.967
1.6880	83.055
1.6840	82.977
1.6800	83.055
1.6760	83.160
1.6720	82.912
1.6680	82.593
1.6640	82.658
1.6600	82.927
1.6560	82.746
1.6520	82.641
1.6480	82.340
1.6440	82.340
1.6400	82.519
1.6360	82.553
1.6320	82.570
1.6280	82.999
1.6240	82.696
1.6200	82.218
1.6160	81.989
1.6120	82.306
1.6080	82.218
1.6040	82.482
1.6000	82.340
1.5960	82.340
1.5920	82.220
1.5880	82.362
1.5840	82.468
1.5800	82.573
1.5760	82.573
1.5720	81.830
1.5680	81.742
1.5640	81.901
1.5600	81.710
1.5560	81.725
1.5520	81.957
1.5480	82.183
1.5440	81.957
1.5400	81.676
1.5360	81.554
1.5320	81.536
1.5280	81.203
1.5240	80.839
1.5200	81.273
1.5160	81.710
1.5120	81.694
1.5080	81.414
1.5040	80.632
1.5000	80.308
1.4960	80.389
1.4920	80.595
1.4880	80.760
1.4840	80.784
1.4800	80.723
1.4760	80.723
1.4720	80.565
1.4680	80.427
1.4640	80.437
1.4600	80.603
1.4560	80.193
1.4520	79.968
1.4480	79.861
1.4440	79.325
1.4400	78.852
1.4360	78.677
1.4320	78.888
1.4280	79.081
1.4240	79.169
1.4200	79.101
1.4160	78.800
1.4120	77.880
1.4080	77.377
1.4040	77.796
1.4000	78.166
1.3960	78.981
1.3920	79.843
1.3880	79.322
1.3840	79.073
1.3800	79.863
1.3760	79.221
1.3720	79.947
1.3680	79.308
1.3640	79.825
1.3600	79.392
1.3560	79.352
1.3520	79.342
1.3480	79.833
1.3440	79.906
1.3400	79.871
1.3360	79.854
1.3320	78.968
1.3280	78.968
1.3240	79.303
1.3200	79.796
1.3160	79.844
1.3120	79.165
1.3080	78.438
1.3040	78.043
1.3000	77.911
1.2960	77.737
1.2920	77.848
1.2880	77.630
1.2840	77.193
1.2800	77.017
1.2760	77.700
1.2720	78.034
1.2680	78.058
1.2640	78.264
1.2600	78.030
1.2560	78.135
1.2520	78.730
1.2480	78.387
1.2440	78.387
1.2400	78.346
1.2360	78.214
1.2320	78.089
1.2280	78.388
1.2240	78.016
1.2200	77.994
1.2160	78.277
1.2120	78.855
1.2080	78.180
1.2040	78.298
1.2000	78.141
1.1960	77.134
1.1920	76.804
1.1880	76.673
1.1840	76.477
1.1800	76.523
1.1760	76.392
1.1720	76.263
1.1680	75.870
1.1640	75.655
1.1600	75.546
1.1560	74.957
1.1520	74.821
1.1480	74.900
1.1440	75.118
1.1400	75.811
1.1360	76.301
1.1320	75.715
1.1280	75.812
1.1240	75.335
1.1200	75.636
1.1160	75.743
1.1120	74.914
1.1080	74.938
1.1040	75.052
1.1000	75.027
1.0960	75.270
1.0920	75.441
1.0880	75.102
1.0840	74.592
1.0800	74.312
1.0760	74.592
1.0720	74.578
1.0680	74.567
1.0640	74.337
1.0600	73.980
1.0560	73.803
1.0520	73.616
1.0480	73.653
1.0440	73.765
1.0400	73.412
1.0360	73.449
1.0320	73.602
1.0280	73.527
1.0240	73.501
1.0200	73.397
1.0160	73.257
1.0120	73.372
1.0080	72.731
1.0040	72.483
1.0000	72.333
0.99600	72.554
0.99200	73.184
0.98800	72.793
0.98400	72.430
0.98000	71.825
0.97600	71.866
0.97200	71.839
0.96800	71.547
0.96400	71.751
0.96000	71.635
0.95600	71.670
0.95200	71.537
0.94800	71.266
0.94400	71.571
0.94000	71.449
0.93600	71.360
0.93200	71.449
0.92800	71.178
0.92400	71.145
0.92000	71.178
0.91600	71.062
0.91200	70.782
0.90800	70.750
0.90400	70.875
0.90000	70.671
0.89600	70.815
0.89200	70.611
0.88800	70.435
0.88400	70.739
0.88000	70.689
0.87600	70.539
0.87200	70.689
0.86800	70.816
0.86400	70.972
0.86000	71.203
0.85600	71.141
0.85200	71.237
0.84800	70.972
0.84400	71.052
0.84000	71.095
0.83600	71.389
0.83200	71.336
0.82800	71.604
0.82400	71.498
0.82000	71.518
0.81600	71.599
0.81200	71.777
0.80800	71.452
0.80400	71.289
0.80000	71.107
0.79900	71.107
0.79800	71.107
0.79700	71.732
0.79600	71.548
0.79500	71.396
0.79400	71.041
0.79300	70.978
0.79200	70.912
0.79100	70.912
0.79000	70.918
0.78900	70.818
0.78800	71.244
0.78700	71.337
0.78600	71.308
0.78500	71.211
0.78400	70.921
0.78300	70.988
0.78200	70.854
0.78100	71.200
0.78000	71.304
0.77900	71.178
0.77800	70.891
0.77700	70.468
0.77600	70.336
0.77500	70.290
0.77400	70.267
0.77300	70.758
0.77200	70.821
0.77100	70.534
0.77000	70.534
0.76900	70.531
0.76800	70.333
0.76700	70.628
0.76600	70.815
0.76500	70.434
0.76400	70.114
0.76300	70.241
0.76200	69.978
0.76100	69.905
0.76000	70.175
0.75900	70.404
0.75800	70.180
0.75700	70.440
0.75600	70.307
0.75500	70.241
0.75400	70.114
0.75300	69.986
0.75200	69.758
0.75100	69.789
0.75000	69.854
0.74900	69.854
0.74800	69.658
0.74700	70.077
0.74600	69.796
0.74500	69.655
0.74400	70.077
0.74300	69.655
0.74200	69.362
0.74100	69.985
0.74000	70.245
0.73900	69.655
0.73800	69.461
0.73700	69.237
0.73600	68.978
0.73500	68.978
0.73400	68.953
0.73300	69.593
0.73200	69.631
0.73100	69.693
0.73000	69.658
0.72900	69.759
0.72800	69.310
0.72700	69.174
0.72600	68.630
0.72500	69.368
0.72400	69.271
0.72300	68.783
0.72200	68.398
0.72100	68.721
0.72000	68.527
0.71900	68.527
0.71800	68.690
0.71700	68.431
0.71600	68.437
0.71500	69.111
0.71400	69.181
0.71300	69.213
0.71200	68.947
0.71100	68.237
0.71000	67.851
0.70900	67.789
0.70800	67.886
0.70700	68.592
0.70600	68.396
0.70500	68.461
0.70400	68.559
0.70300	68.234
0.70200	68.331
0.70100	68.458
0.70000	67.907
0.69900	68.483
0.69800	69.292
0.69700	69.182
0.69600	68.770
0.69500	68.568
0.69400	68.433
0.69300	67.834
0.69200	67.435
0.69100	67.633
0.69000	67.767
0.68900	68.400
0.68800	68.099
0.68700	68.233
0.68600	68.133
0.68500	68.132
0.68400	67.499
0.68300	67.631
0.68200	67.931
0.68100	67.697
0.68000	67.699
0.67900	66.902
0.67800	66.802
0.67700	67.460
0.67600	67.428
0.67500	67.531
0.67400	67.497
0.67300	67.230
0.67200	66.902
0.67100	66.995
0.67000	66.829
0.66900	66.733
0.66800	67.460
0.66700	67.492
0.66600	67.560
0.66500	67.531
0.66400	66.698
0.66300	66.658
0.66200	67.123
0.66100	66.956
0.66000	66.457
0.65900	66.452
0.65800	66.548
0.65700	66.543
0.65600	66.614
0.65500	66.553
0.65400	67.019
0.65300	66.751
0.65200	66.948
0.65100	66.811
0.65000	66.512
0.64900	66.049
0.64800	66.150
0.64700	66.346
0.64600	66.614
0.64500	66.245
0.64400	66.049
0.64300	65.948
0.64200	65.978
0.64100	65.906
0.64000	66.209
0.63900	66.209
0.63800	66.006
0.63700	65.978
0.63600	65.711
0.63500	65.545
0.63400	65.610
0.63300	65.307
0.63200	65.371
0.63100	65.343
0.63000	65.631
0.62900	65.428
0.62800	65.428
0.62700	65.234
0.62600	65.032
0.62500	64.728
0.62400	64.691
0.62300	65.253
0.62200	65.355
0.62100	65.188
0.62000	65.050
0.61900	65.050
0.61800	65.114
0.61700	64.782
0.61600	64.718
0.61500	64.590
0.61400	64.691
0.61300	64.462
0.61200	64.122
0.61100	64.021
0.61000	63.919
0.60900	63.919
0.60800	63.919
0.60700	64.084
0.60600	64.008
0.60500	64.173
0.60400	63.868
0.60300	63.689
0.60200	63.945
0.60100	63.791
0.60000	63.088
0.59900	63.230
0.59800	63.586
0.59700	63.713
0.59600	63.970
0.59500	63.750
0.59400	63.518
0.59300	63.583
0.59200	63.351
0.59100	63.042
0.59000	62.749
0.58900	63.105
0.58800	63.272
0.58700	63.042
0.58600	62.835
0.58500	62.646
0.58400	62.526
0.58300	62.922
0.58200	62.543
0.58100	62.549
0.58000	62.216
0.57900	62.032
0.57800	61.907
0.57700	61.907
0.57600	62.216
0.57500	62.319
0.57400	62.129
0.57300	62.044
0.57200	61.655
0.57100	61.473
0.57000	61.391
0.56900	61.331
0.56800	60.966
0.56700	60.966
0.56600	60.924
0.56500	60.823
0.56400	60.721
0.56300	60.560
0.56200	60.256
0.56100	60.172
0.56000	60.046
0.55900	57.620
0.55800	59.708
0.55700	59.637
0.55600	59.298
0.55500	59.074
0.55400	58.881
0.55300	58.936
0.55200	58.865
0.55100	58.716
0.55000	58.757
0.54900	58.631
0.54800	58.234
0.54700	57.940
0.54600	57.979
0.54500	57.533
0.54400	57.185
0.54300	57.162
0.54200	57.119
0.54100	57.252
0.54000	56.668
0.53900	56.263
0.53800	56.481
0.53700	56.422
0.53600	55.904
0.53500	55.904
0.53400	55.469
0.53300	55.056
0.53200	54.546
0.53100	54.500
0.53000	54.559
0.52900	54.612
0.52800	54.466
0.52700	54.309
0.52600	54.350
0.52500	54.361
0.52400	54.326
0.52300	53.309
0.52200	53.060
0.52100	52.866
0.52000	52.724
0.51900	52.680
0.51800	51.927
0.51700	52.075
0.51600	52.326
0.51500	51.678
0.51400	51.285
0.51300	51.085
0.51200	50.985
0.51100	50.396
0.51000	50.589
0.50900	50.884
0.50800	50.003
0.50700	50.201
0.50600	49.817
0.50500	49.707
0.50400	49.552
0.50300	48.676
0.50200	49.111
0.50100	48.621
0.50000	48.568
0.49900	48.562
0.49800	48.180
0.49700	48.067
0.49600	47.688
0.49500	47.527
0.49400	47.157
0.49300	46.707
0.49200	47.113
0.49100	47.096
0.49000	47.231
0.48900	46.515
0.48800	46.372
0.48700	46.088
0.48600	45.937
0.48500	45.937
0.48400	45.739
0.48300	45.618
0.48200	45.624
0.48100	45.550
0.48000	45.322
0.47900	45.097
0.47800	44.776
0.47700	44.677
0.47600	44.663
0.47500	44.621
0.47400	44.677
0.47300	44.453
0.47200	44.059
0.47100	44.045
0.47000	44.061
0.46900	43.841
0.46800	43.743
0.46700	43.726
0.46600	43.351
0.46500	43.228
0.46400	43.230
0.46300	43.592
0.46200	43.040
0.46100	43.080
0.46000	42.903
0.45900	42.730
0.45800	43.016
0.45700	42.669
0.45600	42.811
0.45500	42.421
0.45400	42.566
0.45300	41.979
0.45200	41.956
0.45100	42.155
0.45000	42.251
0.44900	42.109
0.44800	41.698
0.44700	41.741
0.44600	41.467
0.44500	41.168
0.44400	40.755
0.44300	40.978
0.44200	41.006
0.44100	40.392
0.44000	40.026
0.43900	39.899
0.43800	40.022
0.43700	40.004
0.43600	39.176
0.43500	38.656
0.43400	38.625
0.43300	38.491
0.43200	37.794
0.43100	38.004
0.43000	37.657
0.42900	37.661
0.42800	37.126
0.42700	37.135
0.42600	36.754
0.42500	36.230
0.42400	36.223
0.42300	35.978
0.42200	35.293
0.42100	35.315
0.42000	35.445
0.41900	34.794
0.41800	34.590
0.41700	34.902
0.41600	34.694
0.41500	34.382
0.41400	34.513
0.41300	33.935
0.41200	33.705
0.41100	33.746
0.41000	33.461
0.40900	33.295
0.40800	33.311
0.40700	33.297
0.40600	32.985
0.40500	32.491
0.40400	32.204
0.40300	32.416
0.40200	32.495
0.40100	32.047
0.40000	32.161
0.0000	
