Name: Lithographic Limestone 
Type:  Rocks
Class:  Sedimentary
Subclass: Limestone
Particle Size:  0 - 75 Micrometers
Sample No.:  limestone.5
Owner:  JHU
Wavelength Range:  All
Origin:  Sample No. 356,  The Hunt and Salisbury Collection at the U.S. 
Geological Survey, Denver, Co.
Description: The sample is a homogeneous microcrystalline carbonate 
with scattered flecks of a reddish brown (Fe-rich ?) material, which 
sometimes occurs as discontinuous bands throughout the section.



Measurement:  Directional (10 Degree) Hemispherical Reflectance
First Column:  X
Second Column:  Y  
X Units:  Wavelength (micrometers)
Y Units:  Reflectance (percent)
First X Value: 14.9831
Last X Value:  0.4
Number of X Values:  2868
Additional Information:  None 

14.983	21.745
14.940	21.816
14.897	21.888
14.854	22.054
14.812	22.365
14.770	22.714
14.728	22.988
14.686	23.140
14.645	23.119
14.603	22.925
14.562	22.563
14.521	22.105
14.481	21.638
14.441	21.173
14.400	20.670
14.361	20.072
14.321	19.250
14.281	18.040
14.242	16.266
14.203	13.863
14.164	10.938
14.126	7.7647
14.087	4.7910
14.049	2.5647
14.011	1.5537
13.973	2.0075
13.936	3.8826
13.899	6.8655
13.861	10.460
13.824	14.128
13.788	17.447
13.751	20.189
13.715	22.309
13.679	23.892
13.643	25.077
13.607	25.995
13.571	26.726
13.536	27.304
13.500	27.741
13.465	28.043
13.430	28.219
13.396	28.293
13.361	28.291
13.327	28.236
13.293	28.151
13.259	28.051
13.225	27.942
13.191	27.819
13.158	27.659
13.124	27.446
13.091	27.170
13.058	26.832
13.026	26.451
12.993	26.058
12.960	25.694
12.928	25.390
12.896	25.164
12.864	25.025
12.832	24.981
12.800	25.034
12.769	25.171
12.737	25.373
12.706	25.607
12.675	25.826
12.644	25.979
12.614	26.039
12.583	26.026
12.552	26.000
12.522	26.044
12.492	26.226
12.462	26.581
12.432	27.084
12.402	27.660
12.373	28.224
12.343	28.721
12.314	29.137
12.285	29.486
12.256	29.791
12.227	30.075
12.198	30.341
12.169	30.579
12.141	30.776
12.113	30.934
12.084	31.063
12.056	31.156
12.028	31.230
12.000	31.413
11.973	31.674
11.945	31.546
11.918	30.534
11.890	28.485
11.863	25.626
11.836	22.502
11.809	19.948
11.782	18.926
11.755	19.657
11.729	21.272
11.702	22.757
11.676	23.408
11.650	22.808
11.624	20.880
11.598	17.969
11.572	14.686
11.546	11.458
11.520	8.4536
11.495	5.9455
11.469	4.1789
11.444	3.1073
11.419	2.5143
11.394	2.2893
11.369	2.4887
11.344	3.3026
11.319	4.9641
11.294	7.6174
11.270	11.108
11.245	14.869
11.221	18.237
11.197	20.809
11.173	22.459
11.149	23.284
11.125	23.524
11.101	23.455
11.077	23.247
11.054	22.931
11.030	22.515
11.007	22.072
10.983	21.679
10.960	21.398
10.937	21.264
10.914	21.273
10.891	21.384
10.868	21.539
10.846	21.684
10.823	21.782
10.800	21.811
10.778	21.773
10.756	21.688
10.733	21.592
10.711	21.515
10.689	21.483
10.667	21.506
10.645	21.580
10.623	21.681
10.602	21.782
10.580	21.861
10.558	21.907
10.537	21.923
10.516	21.913
10.494	21.876
10.473	21.806
10.452	21.691
10.431	21.514
10.410	21.264
10.389	20.937
10.368	20.539
10.348	20.078
10.327	19.559
10.306	18.985
10.286	18.360
10.266	17.700
10.245	17.029
10.225	16.371
10.205	15.749
10.185	15.173
10.165	14.633
10.145	14.111
10.125	13.590
10.106	13.068
10.086	12.548
10.066	12.043
10.047	11.563
10.027	11.115
10.008	10.694
9.9887	10.302
9.9695	9.9418
9.9504	9.6159
9.9313	9.3305
9.9123	9.0916
9.8934	8.8995
9.8746	8.7546
9.8558	8.6457
9.8371	8.5588
9.8185	8.4780
9.7999	8.3906
9.7814	8.2938
9.7630	8.1912
9.7447	8.0908
9.7264	8.0108
9.7082	7.9617
9.6900	7.9509
9.6719	7.9824
9.6539	8.0572
9.6360	8.1742
9.6181	8.3309
9.6003	8.5206
9.5825	8.7378
9.5649	8.9751
9.5472	9.2294
9.5297	9.4949
9.5122	9.7639
9.4948	10.027
9.4774	10.279
9.4601	10.510
9.4429	10.711
9.4257	10.878
9.4086	11.022
9.3916	11.152
9.3746	11.283
9.3577	11.436
9.3408	11.623
9.3240	11.831
9.3073	12.041
9.2906	12.229
9.2740	12.378
9.2574	12.492
9.2409	12.599
9.2245	12.743
9.2081	12.951
9.1918	13.223
9.1755	13.551
9.1593	13.908
9.1431	14.260
9.1270	14.584
9.1110	14.875
9.0950	15.142
9.0791	15.381
9.0632	15.592
9.0474	15.788
9.0316	15.984
9.0159	16.192
9.0003	16.436
8.9847	16.745
8.9691	17.138
8.9536	17.612
8.9382	18.146
8.9228	18.713
8.9075	19.284
8.8922	19.836
8.8770	20.359
8.8618	20.856
8.8467	21.332
8.8316	21.783
8.8166	22.196
8.8016	22.561
8.7867	22.870
8.7718	23.115
8.7570	23.299
8.7423	23.431
8.7275	23.510
8.7129	23.531
8.6982	23.472
8.6837	23.305
8.6692	23.001
8.6547	22.550
8.6403	21.986
8.6259	21.389
8.6116	20.858
8.5973	20.489
8.5830	20.325
8.5688	20.346
8.5547	20.476
8.5406	20.622
8.5266	20.722
8.5126	20.769
8.4986	20.802
8.4847	20.878
8.4708	21.042
8.4570	21.309
8.4432	21.663
8.4295	22.083
8.4158	22.552
8.4022	23.062
8.3886	23.605
8.3750	24.160
8.3615	24.702
8.3481	25.201
8.3347	25.637
8.3213	26.014
8.3079	26.341
8.2946	26.636
8.2814	26.912
8.2682	27.177
8.2550	27.427
8.2419	27.646
8.2288	27.818
8.2158	27.928
8.2028	27.963
8.1898	27.921
8.1769	27.818
8.1640	27.676
8.1512	27.511
8.1384	27.328
8.1256	27.121
8.1129	26.883
8.1002	26.619
8.0876	26.360
8.0750	26.153
8.0624	26.044
8.0499	26.053
8.0374	26.167
8.0250	26.341
8.0126	26.515
8.0002	26.628
7.9879	26.645
7.9756	26.545
7.9634	26.329
7.9512	26.014
7.9390	25.633
7.9268	25.241
7.9147	24.895
7.9027	24.641
7.8906	24.498
7.8786	24.446
7.8667	24.427
7.8548	24.372
7.8429	24.232
7.8310	23.997
7.8192	23.698
7.8075	23.388
7.7957	23.119
7.7840	22.917
7.7723	22.770
7.7607	22.638
7.7491	22.474
7.7375	22.240
7.7260	21.913
7.7145	21.492
7.7031	20.990
7.6916	20.430
7.6802	19.829
7.6689	19.205
7.6575	18.579
7.6462	17.967
7.6350	17.389
7.6238	16.860
7.6126	16.395
7.6014	16.000
7.5903	15.677
7.5792	15.419
7.5681	15.213
7.5571	15.040
7.5461	14.885
7.5351	14.729
7.5242	14.552
7.5133	14.349
7.5024	14.116
7.4916	13.855
7.4807	13.563
7.4700	13.242
7.4592	12.896
7.4485	12.528
7.4378	12.148
7.4272	11.769
7.4165	11.398
7.4059	11.027
7.3954	10.644
7.3848	10.234
7.3743	9.7836
7.3639	9.2867
7.3534	8.7572
7.3430	8.2161
7.3326	7.6818
7.3223	7.1684
7.3119	6.6891
7.3016	6.2498
7.2914	5.8512
7.2811	5.4920
7.2709	5.1685
7.2607	4.8708
7.2506	4.5907
7.2404	4.3252
7.2303	4.0758
7.2203	3.8492
7.2102	3.6560
7.2002	3.5030
7.1902	3.3874
7.1803	3.3031
7.1703	3.2467
7.1604	3.2190
7.1506	3.2226
7.1407	3.2626
7.1309	3.3429
7.1211	3.4547
7.1113	3.5814
7.1016	3.6995
7.0919	3.7898
7.0822	3.8407
7.0725	3.8525
7.0629	3.8329
7.0533	3.7940
7.0437	3.7493
7.0341	3.7095
7.0246	3.6782
7.0151	3.6557
7.0056	3.6406
6.9962	3.6297
6.9867	3.6176
6.9773	3.6041
6.9679	3.5908
6.9586	3.5833
6.9493	3.5830
6.9400	3.5878
6.9307	3.5965
6.9214	3.6067
6.9122	3.6150
6.9030	3.6214
6.8938	3.6290
6.8847	3.6429
6.8755	3.6598
6.8664	3.6759
6.8573	3.6924
6.8483	3.7097
6.8393	3.7263
6.8302	3.7405
6.8213	3.7568
6.8123	3.7760
6.8034	3.7914
6.7944	3.8026
6.7855	3.8125
6.7767	3.8248
6.7678	3.8407
6.7590	3.8613
6.7502	3.8906
6.7414	3.9278
6.7327	3.9664
6.7239	4.0034
6.7152	4.0394
6.7065	4.0775
6.6979	4.1225
6.6892	4.1781
6.6806	4.2480
6.6720	4.3314
6.6634	4.4216
6.6549	4.5166
6.6464	4.6179
6.6378	4.7304
6.6294	4.8616
6.6209	5.0153
6.6124	5.1919
6.6040	5.3850
6.5956	5.5808
6.5872	5.7703
6.5789	5.9438
6.5705	6.0954
6.5622	6.2257
6.5539	6.3384
6.5457	6.4371
6.5374	6.5226
6.5292	6.5960
6.5209	6.6640
6.5128	6.7339
6.5046	6.8160
6.4964	6.9307
6.4883	7.1026
6.4802	7.3482
6.4721	7.6757
6.4640	8.0742
6.4560	8.5102
6.4480	8.9329
6.4399	9.2870
6.4320	9.5314
6.4240	9.6510
6.4160	9.6564
6.4081	9.5828
6.4002	9.4653
6.3923	9.3284
6.3844	9.1816
6.3766	9.0123
6.3687	8.7975
6.3609	8.5176
6.3531	8.1664
6.3454	7.7541
6.3376	7.3048
6.3299	6.8591
6.3221	6.4620
6.3144	6.1475
6.3068	5.9410
6.2991	5.8517
6.2914	5.8704
6.2838	5.9654
6.2762	6.0930
6.2686	6.2157
6.2611	6.3017
6.2535	6.3358
6.2460	6.3216
6.2385	6.2751
6.2310	6.2136
6.2235	6.1466
6.2160	6.0791
6.2086	6.0173
6.2011	5.9635
6.1937	5.9192
6.1863	5.8882
6.1790	5.8752
6.1716	5.8782
6.1643	5.8960
6.1570	5.9266
6.1496	5.9713
6.1424	6.0312
6.1351	6.1046
6.1278	6.1885
6.1206	6.2789
6.1134	6.3675
6.1062	6.4528
6.0990	6.5371
6.0918	6.6221
6.0847	6.7147
6.0776	6.8217
6.0704	6.9501
6.0633	7.1047
6.0563	7.2835
6.0492	7.4888
6.0421	7.7240
6.0351	7.9795
6.0281	8.2455
6.0211	8.5168
6.0141	8.7875
6.0071	9.0492
6.0002	9.2891
5.9932	9.5048
5.9863	9.7038
5.9794	9.8875
5.9725	10.061
5.9657	10.236
5.9588	10.423
5.9520	10.627
5.9451	10.852
5.9383	11.098
5.9315	11.366
5.9247	11.644
5.9180	11.914
5.9112	12.162
5.9045	12.379
5.8978	12.568
5.8911	12.735
5.8844	12.884
5.8777	13.023
5.8711	13.152
5.8644	13.258
5.8578	13.330
5.8512	13.364
5.8446	13.360
5.8380	13.326
5.8314	13.278
5.8249	13.237
5.8184	13.216
5.8118	13.215
5.8053	13.219
5.7988	13.209
5.7923	13.169
5.7859	13.098
5.7794	13.009
5.7730	12.929
5.7666	12.887
5.7602	12.908
5.7538	13.001
5.7474	13.167
5.7410	13.395
5.7347	13.672
5.7283	13.984
5.7220	14.314
5.7157	14.645
5.7094	14.974
5.7031	15.302
5.6969	15.640
5.6906	16.005
5.6844	16.422
5.6782	16.906
5.6719	17.447
5.6657	18.012
5.6596	18.556
5.6534	19.019
5.6472	19.336
5.6411	19.444
5.6349	19.294
5.6288	18.828
5.6227	17.976
5.6166	16.667
5.6106	14.878
5.6045	12.672
5.5984	10.219
5.5924	7.7588
5.5864	5.5431
5.5804	3.7810
5.5744	2.6019
5.5684	2.0608
5.5624	2.1939
5.5564	3.0559
5.5505	4.6880
5.5445	7.0483
5.5386	9.9688
5.5327	13.177
5.5268	16.366
5.5209	19.284
5.5151	21.793
5.5092	23.891
5.5033	25.656
5.4975	27.190
5.4917	28.567
5.4859	29.834
5.4801	31.021
5.4743	32.150
5.4685	33.238
5.4628	34.301
5.4570	35.342
5.4513	36.356
5.4455	37.339
5.4398	38.292
5.4341	39.215
5.4284	40.111
5.4228	40.987
5.4171	41.844
5.4114	42.672
5.4058	43.457
5.4002	44.195
5.3945	44.889
5.3889	45.543
5.3833	46.165
5.3778	46.761
5.3722	47.335
5.3666	47.888
5.3611	48.426
5.3555	48.960
5.3500	49.501
5.3445	50.056
5.3390	50.622
5.3335	51.188
5.3280	51.746
5.3225	52.290
5.3171	52.816
5.3116	53.323
5.3062	53.813
5.3008	54.286
5.2954	54.741
5.2900	55.176
5.2846	55.592
5.2792	55.994
5.2738	56.385
5.2684	56.767
5.2631	57.144
5.2578	57.521
5.2524	57.901
5.2471	58.277
5.2418	58.643
5.2365	58.992
5.2312	59.319
5.2260	59.623
5.2207	59.909
5.2154	60.186
5.2102	60.463
5.2050	60.740
5.1998	61.009
5.1945	61.261
5.1893	61.485
5.1842	61.680
5.1790	61.852
5.1738	62.011
5.1686	62.168
5.1635	62.333
5.1584	62.505
5.1532	62.676
5.1481	62.846
5.1430	63.028
5.1379	63.224
5.1328	63.352
5.1277	63.216
5.1227	62.622
5.1176	61.520
5.1126	60.073
5.1075	58.646
5.1025	57.726
5.0975	57.716
5.0925	58.695
5.0875	60.326
5.0825	62.110
5.0775	63.636
5.0726	64.668
5.0676	65.191
5.0627	65.368
5.0577	65.416
5.0528	65.466
5.0479	65.523
5.0430	65.571
5.0380	65.608
5.0332	65.634
5.0283	65.655
5.0234	65.677
5.0185	65.704
5.0137	65.738
5.0088	65.770
5.0040	65.799
4.9992	65.823
4.9944	65.844
4.9896	65.863
4.9848	65.885
4.9800	65.912
4.9752	65.946
4.9704	65.979
4.9657	66.011
4.9609	66.042
4.9562	66.071
4.9514	66.098
4.9467	66.124
4.9420	66.153
4.9373	66.188
4.9326	66.229
4.9279	66.279
4.9232	66.343
4.9186	66.419
4.9139	66.504
4.9092	66.593
4.9046	66.687
4.9000	66.784
4.8953	66.879
4.8907	66.972
4.8861	67.064
4.8815	67.151
4.8769	67.232
4.8723	67.304
4.8678	67.369
4.8632	67.426
4.8586	67.474
4.8541	67.516
4.8495	67.557
4.8450	67.601
4.8405	67.648
4.8360	67.695
4.8315	67.739
4.8270	67.775
4.8225	67.799
4.8180	67.817
4.8135	67.834
4.8090	67.853
4.8046	67.873
4.8001	67.888
4.7957	67.891
4.7913	67.872
4.7868	67.823
4.7824	67.733
4.7780	67.596
4.7736	67.407
4.7692	67.164
4.7648	66.873
4.7605	66.541
4.7561	66.175
4.7517	65.776
4.7474	65.337
4.7431	64.839
4.7387	64.246
4.7344	63.507
4.7301	62.568
4.7258	61.384
4.7215	59.941
4.7172	58.273
4.7129	56.459
4.7086	54.613
4.7043	52.848
4.7000	51.255
4.6958	49.895
4.6915	48.787
4.6873	47.922
4.6831	47.283
4.6788	46.846
4.6746	46.597
4.6704	46.533
4.6662	46.665
4.6620	47.020
4.6578	47.623
4.6536	48.491
4.6495	49.607
4.6453	50.910
4.6411	52.316
4.6370	53.731
4.6328	55.069
4.6287	56.273
4.6246	57.319
4.6205	58.204
4.6163	58.934
4.6122	59.517
4.6081	59.973
4.6040	60.328
4.6000	60.611
4.5959	60.845
4.5918	61.048
4.5877	61.224
4.5837	61.370
4.5796	61.486
4.5756	61.575
4.5716	61.646
4.5675	61.708
4.5635	61.767
4.5595	61.825
4.5555	61.879
4.5515	61.927
4.5475	61.967
4.5435	61.998
4.5395	62.022
4.5356	62.045
4.5316	62.069
4.5276	62.099
4.5237	62.141
4.5197	62.194
4.5158	62.259
4.5119	62.339
4.5080	62.444
4.5040	62.584
4.5001	62.770
4.4962	63.008
4.4923	63.304
4.4884	63.651
4.4846	64.038
4.4807	64.450
4.4768	64.867
4.4730	65.270
4.4691	65.643
4.4652	65.980
4.4614	66.287
4.4576	66.576
4.4537	66.863
4.4499	67.164
4.4461	67.485
4.4423	67.820
4.4385	68.156
4.4347	68.476
4.4309	68.770
4.4271	69.028
4.4233	69.248
4.4196	69.437
4.4158	69.600
4.4120	69.742
4.4083	69.868
4.4045	69.985
4.4008	70.097
4.3971	70.205
4.3934	70.306
4.3896	70.398
4.3859	70.477
4.3822	70.532
4.3785	70.551
4.3748	70.520
4.3711	70.426
4.3674	70.261
4.3638	70.032
4.3601	69.761
4.3564	69.480
4.3528	69.221
4.3491	69.010
4.3455	68.857
4.3418	68.760
4.3382	68.705
4.3346	68.675
4.3310	68.656
4.3273	68.637
4.3237	68.613
4.3201	68.590
4.3165	68.583
4.3129	68.609
4.3094	68.677
4.3058	68.782
4.3022	68.901
4.2986	69.006
4.2951	69.069
4.2915	69.078
4.2880	69.036
4.2844	68.962
4.2809	68.877
4.2774	68.793
4.2738	68.718
4.2703	68.657
4.2668	68.612
4.2633	68.580
4.2598	68.558
4.2563	68.542
4.2528	68.522
4.2493	68.489
4.2458	68.438
4.2424	68.369
4.2389	68.284
4.2354	68.188
4.2320	68.087
4.2285	67.991
4.2251	67.902
4.2216	67.823
4.2182	67.748
4.2148	67.672
4.2113	67.586
4.2079	67.480
4.2045	67.353
4.2011	67.207
4.1977	67.044
4.1943	66.866
4.1909	66.675
4.1875	66.478
4.1841	66.273
4.1808	66.064
4.1774	65.852
4.1740	65.636
4.1707	65.411
4.1673	65.174
4.1640	64.922
4.1606	64.652
4.1573	64.356
4.1540	64.032
4.1506	63.679
4.1473	63.292
4.1440	62.875
4.1407	62.435
4.1374	61.976
4.1341	61.504
4.1308	61.021
4.1275	60.528
4.1242	60.027
4.1209	59.520
4.1177	59.011
4.1144	58.500
4.1111	57.987
4.1079	57.473
4.1046	56.951
4.1014	56.412
4.0981	55.854
4.0949	55.275
4.0917	54.673
4.0884	54.040
4.0852	53.371
4.0820	52.660
4.0788	51.900
4.0756	51.089
4.0724	50.237
4.0692	49.356
4.0660	48.449
4.0628	47.500
4.0596	46.470
4.0565	45.303
4.0533	43.933
4.0501	42.320
4.0470	40.471
4.0438	38.441
4.0406	36.319
4.0375	34.205
4.0344	32.184
4.0312	30.303
4.0281	28.556
4.0250	26.902
4.0218	25.276
4.0187	23.608
4.0156	21.847
4.0125	19.981
4.0094	18.050
4.0063	16.129
4.0032	14.306
4.0001	12.657
3.9970	11.234
3.9940	10.055
3.9909	9.1219
3.9878	8.4226
3.9847	7.9416
3.9817	7.6574
3.9786	7.5431
3.9756	7.5658
3.9725	7.6946
3.9695	7.9137
3.9665	8.2263
3.9634	8.6506
3.9604	9.2138
3.9574	9.9484
3.9544	10.892
3.9513	12.065
3.9483	13.435
3.9453	14.918
3.9423	16.392
3.9393	17.721
3.9363	18.793
3.9333	19.572
3.9304	20.108
3.9274	20.501
3.9244	20.837
3.9214	21.167
3.9185	21.500
3.9155	21.818
3.9126	22.097
3.9096	22.325
3.9067	22.513
3.9037	22.681
3.9008	22.838
3.8979	22.989
3.8949	23.134
3.8920	23.277
3.8891	23.419
3.8862	23.559
3.8833	23.691
3.8804	23.809
3.8775	23.907
3.8746	23.985
3.8717	24.054
3.8688	24.126
3.8659	24.217
3.8630	24.335
3.8601	24.482
3.8573	24.652
3.8544	24.840
3.8515	25.049
3.8487	25.299
3.8458	25.623
3.8430	26.066
3.8401	26.668
3.8373	27.449
3.8344	28.406
3.8316	29.515
3.8288	30.733
3.8259	32.019
3.8231	33.345
3.8203	34.702
3.8175	36.097
3.8147	37.551
3.8119	39.097
3.8091	40.768
3.8063	42.594
3.8035	44.587
3.8007	46.724
3.7979	48.950
3.7951	51.175
3.7924	53.293
3.7896	55.204
3.7868	56.844
3.7841	58.194
3.7813	59.278
3.7785	60.146
3.7758	60.857
3.7730	61.459
3.7703	61.984
3.7676	62.442
3.7648	62.837
3.7621	63.169
3.7594	63.444
3.7566	63.671
3.7539	63.865
3.7512	64.050
3.7485	64.244
3.7458	64.459
3.7431	64.702
3.7404	64.966
3.7377	65.236
3.7350	65.494
3.7323	65.729
3.7296	65.934
3.7269	66.111
3.7242	66.261
3.7216	66.390
3.7189	66.501
3.7162	66.592
3.7136	66.665
3.7109	66.726
3.7083	66.781
3.7056	66.831
3.7030	66.876
3.7003	66.913
3.6977	66.943
3.6950	66.961
3.6924	66.966
3.6898	66.960
3.6872	66.948
3.6845	66.929
3.6819	66.903
3.6793	66.867
3.6767	66.824
3.6741	66.771
3.6715	66.705
3.6689	66.628
3.6663	66.545
3.6637	66.457
3.6611	66.362
3.6585	66.263
3.6560	66.162
3.6534	66.053
3.6508	65.933
3.6482	65.806
3.6457	65.672
3.6431	65.531
3.6406	65.387
3.6380	65.246
3.6355	65.107
3.6329	64.965
3.6304	64.815
3.6278	64.655
3.6253	64.479
3.6227	64.289
3.6202	64.092
3.6177	63.888
3.6152	63.674
3.6127	63.443
3.6101	63.186
3.6076	62.896
3.6051	62.570
3.6026	62.210
3.6001	61.821
3.5976	61.399
3.5951	60.937
3.5926	60.417
3.5901	59.818
3.5876	59.121
3.5852	58.317
3.5827	57.427
3.5802	56.502
3.5777	55.622
3.5753	54.872
3.5728	54.318
3.5704	53.982
3.5679	53.827
3.5654	53.774
3.5630	53.727
3.5605	53.606
3.5581	53.361
3.5557	52.972
3.5532	52.445
3.5508	51.792
3.5484	51.020
3.5459	50.127
3.5435	49.101
3.5411	47.931
3.5387	46.600
3.5363	45.083
3.5338	43.360
3.5314	41.422
3.5290	39.281
3.5266	36.987
3.5242	34.631
3.5218	32.331
3.5195	30.211
3.5171	28.360
3.5147	26.823
3.5123	25.585
3.5099	24.587
3.5075	23.755
3.5052	23.022
3.5028	22.336
3.5004	21.664
3.4981	20.994
3.4957	20.325
3.4934	19.660
3.4910	18.999
3.4887	18.353
3.4863	17.739
3.4840	17.191
3.4816	16.764
3.4793	16.546
3.4770	16.645
3.4746	17.140
3.4723	18.055
3.4700	19.336
3.4677	20.858
3.4653	22.441
3.4630	23.907
3.4607	25.133
3.4584	26.070
3.4561	26.730
3.4538	27.168
3.4515	27.453
3.4492	27.647
3.4469	27.791
3.4446	27.906
3.4423	28.007
3.4400	28.097
3.4378	28.175
3.4355	28.235
3.4332	28.273
3.4309	28.290
3.4287	28.290
3.4264	28.274
3.4241	28.248
3.4219	28.219
3.4196	28.186
3.4174	28.144
3.4151	28.094
3.4129	28.032
3.4106	27.951
3.4084	27.853
3.4061	27.741
3.4039	27.622
3.4017	27.494
3.3994	27.366
3.3972	27.240
3.3950	27.108
3.3928	26.962
3.3906	26.803
3.3883	26.632
3.3861	26.452
3.3839	26.274
3.3817	26.115
3.3795	25.989
3.3773	25.891
3.3751	25.811
3.3729	25.730
3.3707	25.616
3.3685	25.425
3.3663	25.123
3.3641	24.694
3.3620	24.140
3.3598	23.488
3.3576	22.797
3.3554	22.171
3.3533	21.760
3.3511	21.739
3.3489	22.286
3.3468	23.535
3.3446	25.518
3.3425	28.128
3.3403	31.138
3.3382	34.253
3.3360	37.198
3.3339	39.778
3.3317	41.907
3.3296	43.603
3.3274	44.944
3.3253	46.023
3.3232	46.916
3.3210	47.672
3.3189	48.324
3.3168	48.893
3.3147	49.395
3.3126	49.841
3.3104	50.240
3.3083	50.599
3.3062	50.926
3.3041	51.227
3.3020	51.503
3.2999	51.757
3.2978	51.994
3.2957	52.212
3.2936	52.407
3.2915	52.581
3.2894	52.743
3.2874	52.895
3.2853	53.037
3.2832	53.173
3.2811	53.304
3.2790	53.424
3.2770	53.529
3.2749	53.621
3.2728	53.702
3.2708	53.772
3.2687	53.832
3.2666	53.882
3.2646	53.922
3.2625	53.952
3.2605	53.977
3.2584	53.998
3.2564	54.015
3.2543	54.032
3.2523	54.049
3.2503	54.059
3.2482	54.063
3.2462	54.063
3.2442	54.056
3.2421	54.040
3.2401	54.020
3.2381	54.003
3.2361	53.991
3.2340	53.979
3.2320	53.969
3.2300	53.959
3.2280	53.940
3.2260	53.908
3.2240	53.868
3.2220	53.826
3.2200	53.783
3.2180	53.743
3.2160	53.705
3.2140	53.667
3.2120	53.622
3.2100	53.571
3.2080	53.515
3.2060	53.456
3.2041	53.396
3.2021	53.341
3.2001	53.285
3.1981	53.222
3.1961	53.155
3.1942	53.086
3.1922	53.012
3.1902	52.936
3.1883	52.861
3.1863	52.786
3.1844	52.701
3.1824	52.603
3.1805	52.495
3.1785	52.379
3.1766	52.258
3.1746	52.136
3.1727	52.008
3.1707	51.867
3.1688	51.708
3.1669	51.528
3.1649	51.326
3.1630	51.108
3.1611	50.884
3.1591	50.665
3.1572	50.462
3.1553	50.286
3.1534	50.147
3.1515	50.049
3.1495	49.986
3.1476	49.952
3.1457	49.939
3.1438	49.935
3.1419	49.931
3.1400	49.925
3.1381	49.915
3.1362	49.901
3.1343	49.882
3.1324	49.863
3.1305	49.842
3.1286	49.808
3.1268	49.751
3.1249	49.666
3.1230	49.549
3.1211	49.402
3.1192	49.235
3.1174	49.063
3.1155	48.897
3.1136	48.751
3.1117	48.635
3.1099	48.555
3.1080	48.515
3.1061	48.513
3.1043	48.541
3.1024	48.589
3.1006	48.647
3.0987	48.709
3.0969	48.775
3.0950	48.840
3.0932	48.906
3.0913	48.971
3.0895	49.037
3.0876	49.098
3.0858	49.156
3.0840	49.215
3.0821	49.274
3.0803	49.328
3.0785	49.372
3.0766	49.406
3.0748	49.427
3.0730	49.432
3.0712	49.430
3.0694	49.429
3.0675	49.431
3.0657	49.430
3.0639	49.429
3.0621	49.431
3.0603	49.436
3.0585	49.442
3.0567	49.455
3.0549	49.478
3.0531	49.506
3.0513	49.533
3.0495	49.553
3.0477	49.565
3.0459	49.567
3.0441	49.558
3.0423	49.548
3.0406	49.538
3.0388	49.531
3.0370	49.525
3.0352	49.518
3.0334	49.512
3.0317	49.508
3.0299	49.511
3.0281	49.521
3.0264	49.530
3.0246	49.531
3.0228	49.519
3.0211	49.492
3.0193	49.458
3.0176	49.426
3.0158	49.399
3.0140	49.381
3.0123	49.368
3.0105	49.358
3.0088	49.354
3.0070	49.354
3.0053	49.353
3.0036	49.347
3.0018	49.330
3.0001	49.299
2.9984	49.259
2.9966	49.220
2.9949	49.194
2.9932	49.184
2.9914	49.189
2.9897	49.204
2.9880	49.218
2.9863	49.220
2.9845	49.206
2.9828	49.178
2.9811	49.142
2.9794	49.103
2.9777	49.067
2.9760	49.036
2.9743	49.013
2.9726	48.992
2.9709	48.969
2.9692	48.942
2.9675	48.911
2.9658	48.878
2.9641	48.854
2.9624	48.845
2.9607	48.849
2.9590	48.859
2.9573	48.869
2.9556	48.871
2.9539	48.855
2.9523	48.832
2.9506	48.814
2.9489	48.807
2.9472	48.807
2.9455	48.810
2.9439	48.815
2.9422	48.814
2.9405	48.804
2.9389	48.795
2.9372	48.792
2.9355	48.798
2.9339	48.814
2.9322	48.836
2.9306	48.863
2.9289	48.890
2.9272	48.917
2.9256	48.946
2.9239	48.973
2.9223	48.998
2.9207	49.028
2.9190	49.059
2.9174	49.092
2.9157	49.130
2.9141	49.175
2.9124	49.225
2.9108	49.264
2.9092	49.292
2.9075	49.316
2.9059	49.334
2.9043	49.352
2.9027	49.379
2.9010	49.421
2.8994	49.476
2.8978	49.534
2.8962	49.596
2.8946	49.660
2.8929	49.721
2.8913	49.775
2.8897	49.830
2.8881	49.887
2.8865	49.945
2.8849	50.004
2.8833	50.065
2.8817	50.126
2.8801	50.181
2.8785	50.234
2.8769	50.291
2.8753	50.353
2.8737	50.418
2.8721	50.482
2.8705	50.550
2.8689	50.620
2.8673	50.685
2.8658	50.744
2.8642	50.803
2.8626	50.863
2.8610	50.919
2.8594	50.971
2.8579	51.030
2.8563	51.090
2.8547	51.142
2.8531	51.182
2.8516	51.211
2.8500	51.231
2.8484	51.249
2.8469	51.270
2.8453	51.303
2.8437	51.344
2.8422	51.384
2.8406	51.415
2.8391	51.430
2.8375	51.426
2.8360	51.405
2.8344	51.370
2.8329	51.334
2.8313	51.303
2.8298	51.281
2.8282	51.264
2.8267	51.252
2.8252	51.240
2.8236	51.214
2.8221	51.170
2.8205	51.113
2.8190	51.041
2.8175	50.954
2.8159	50.853
2.8144	50.743
2.8129	50.625
2.8114	50.495
2.8098	50.353
2.8083	50.203
2.8068	50.044
2.8053	49.879
2.8038	49.705
2.8022	49.519
2.8007	49.317
2.7992	49.088
2.7977	48.826
2.7962	48.528
2.7947	48.198
2.7932	47.852
2.7917	47.508
2.7902	47.184
2.7887	46.901
2.7872	46.675
2.7857	46.512
2.7842	46.402
2.7827	46.331
2.7812	46.288
2.7797	46.260
2.7782	46.231
2.7767	46.196
2.7752	46.159
2.7738	46.131
2.7723	46.097
2.7708	46.010
2.7693	45.808
2.7678	45.456
2.7664	44.974
2.7649	44.447
2.7634	44.004
2.7619	43.796
2.7605	43.901
2.7590	44.278
2.7575	44.818
2.7561	45.413
2.7546	45.988
2.7531	46.498
2.7517	46.938
2.7502	47.342
2.7488	47.718
2.7473	48.040
2.7458	48.290
2.7444	48.476
2.7429	48.611
2.7415	48.727
2.7400	48.882
2.7386	49.135
2.7371	49.514
2.7357	50.024
2.7343	50.656
2.7328	51.360
2.7314	52.075
2.7299	52.773
2.7285	53.449
2.7271	54.118
2.7256	54.811
2.7242	55.576
2.7228	56.440
2.7213	57.379
2.7199	58.343
2.7185	59.257
2.7171	60.015
2.7156	60.523
2.7142	60.708
2.7128	60.520
2.7114	59.939
2.7100	59.018
2.7085	57.894
2.7071	56.779
2.7057	55.941
2.7043	55.646
2.7029	56.051
2.7015	57.152
2.7001	58.807
2.6987	60.811
2.6973	62.956
2.6959	65.099
2.6945	67.176
2.6931	69.177
2.6917	71.084
2.6903	72.846
2.6889	74.425
2.6875	75.791
2.6861	76.943
2.6847	77.890
2.6833	78.657
2.6819	79.282
2.6805	79.811
2.6791	80.271
2.6778	80.684
2.6764	81.073
2.6750	81.448
2.6736	81.780
2.6722	82.034
2.6709	82.226
2.6695	82.419
2.6681	82.639
2.6667	82.887
2.6654	83.190
2.6640	83.543
2.6626	83.893
2.6613	84.186
2.6599	84.418
2.6585	84.607
2.6572	84.753
2.6558	84.863
2.6545	84.974
2.6531	85.092
2.6517	85.215
2.6504	85.330
2.6490	85.428
2.6477	85.508
2.6463	85.579
2.6450	85.649
2.6436	85.726
2.6423	85.807
2.6409	85.898
2.6396	85.993
2.6382	86.059
2.6369	86.080
2.6356	86.066
2.6342	86.019
2.6329	85.950
2.6315	85.879
2.6302	85.859
2.6289	85.916
2.6275	85.999
2.6262	86.085
2.6249	86.160
2.6236	86.184
2.6222	86.149
2.6209	86.075
2.6196	86.031
2.6183	86.041
2.6169	86.080
2.6156	86.156
2.6143	86.255
2.6130	86.320
2.6117	86.326
2.6103	86.266
2.6090	86.165
2.6077	86.042
2.6064	85.920
2.6051	85.864
2.6038	85.908
2.6025	85.992
2.6012	86.045
2.5999	86.011
2.5986	85.879
2.5973	85.667
2.5960	85.435
2.5947	85.283
2.5934	85.271
2.5921	85.336
2.5908	85.382
2.5895	85.357
2.5882	85.246
2.5869	85.068
2.5856	84.871
2.5843	84.712
2.5830	84.636
2.5817	84.620
2.5805	84.613
2.5792	84.596
2.5779	84.552
2.5766	84.473
2.5753	84.352
2.5741	84.193
2.5728	84.028
2.5715	83.870
2.5702	83.700
2.5690	83.512
2.5677	83.285
2.5664	82.993
2.5651	82.623
2.5639	82.195
2.5626	81.746
2.5613	81.297
2.5601	80.845
2.5588	80.374
2.5575	79.850
2.5563	79.252
2.5550	78.573
2.5538	77.832
2.5525	77.063
2.5513	76.293
2.5500	75.535
2.5487	74.789
2.5475	74.055
2.5462	73.348
2.5450	72.679
2.5437	72.065
2.5425	71.531
2.5413	71.090
2.5400	70.746
2.5388	70.496
2.5375	70.337
2.5363	70.275
2.5350	70.309
2.5338	70.438
2.5326	70.655
2.5313	70.946
2.5301	71.291
2.5289	71.667
2.5276	72.063
2.5264	72.469
2.5252	72.879
2.5239	73.290
2.5227	73.691
2.5215	74.072
2.5202	74.423
2.5190	74.735
2.5178	75.007
2.5166	75.238
2.5154	75.436
2.5141	75.609
2.5129	75.763
2.5117	75.897
2.5105	76.015
2.5093	76.119
2.5081	76.210
2.5068	76.289
2.5056	76.366
2.5044	76.440
2.5032	76.513
2.5020	76.583
2.5008	76.652
2.4996	76.722
2.4984	76.794
2.4972	76.868
2.4960	76.948
2.4948	77.031
2.4936	77.115
2.4924	77.198
2.4912	77.285
2.4900	77.383
2.4888	77.494
2.4876	77.620
2.4864	77.763
2.4852	77.925
2.4840	78.103
2.4828	78.295
2.4816	78.503
2.4805	78.725
2.4793	78.957
2.4781	79.195
2.4769	79.439
2.4757	79.690
2.4745	79.954
2.4734	80.235
2.4722	80.531
2.4710	80.838
2.4698	81.150
2.4686	81.454
2.4675	81.741
2.4663	82.007
2.4651	82.257
2.4640	82.494
2.4628	82.722
2.4616	82.948
2.4604	83.175
2.4593	83.396
2.4581	83.602
2.4569	83.796
2.4558	83.975
2.4546	84.143
2.4535	84.302
2.4523	84.460
2.4511	84.620
2.4500	84.780
2.4488	84.934
2.4477	85.085
2.4465	85.233
2.4454	85.380
2.4442	85.524
2.4431	85.660
2.4419	85.794
2.4408	85.925
2.4396	86.049
2.4385	86.170
2.4373	86.289
2.4362	86.410
2.4350	86.526
2.4339	86.632
2.4327	86.734
2.4316	86.840
2.4305	86.952
2.4293	87.069
2.4282	87.189
2.4270	87.308
2.4259	87.424
2.4248	87.535
2.4236	87.642
2.4225	87.749
2.4214	87.851
2.4202	87.942
2.4191	88.020
2.4180	88.088
2.4169	88.154
2.4157	88.219
2.4146	88.283
2.4135	88.341
2.4124	88.386
2.4112	88.419
2.4101	88.443
2.4090	88.462
2.4079	88.478
2.4068	88.487
2.4056	88.491
2.4045	88.489
2.4034	88.482
2.4023	88.481
2.4012	88.496
2.4001	88.531
2.3990	88.578
2.3979	88.626
2.3967	88.676
2.3956	88.715
2.3945	88.737
2.3934	88.745
2.3923	88.751
2.3912	88.761
2.3901	88.771
2.3890	88.779
2.3879	88.783
2.3868	88.777
2.3857	88.759
2.3846	88.725
2.3835	88.683
2.3824	88.634
2.3813	88.580
2.3802	88.516
2.3791	88.441
2.3781	88.361
2.3770	88.280
2.3759	88.192
2.3748	88.095
2.3737	87.983
2.3726	87.848
2.3715	87.682
2.3704	87.486
2.3694	87.269
2.3683	87.034
2.3672	86.780
2.3661	86.510
2.3650	86.217
2.3640	85.896
2.3629	85.548
2.3618	85.175
2.3607	84.779
2.3597	84.362
2.3586	83.929
2.3575	83.492
2.3564	83.054
2.3554	82.628
2.3543	82.222
2.3532	81.836
2.3522	81.466
2.3511	81.119
2.3500	80.798
2.3490	80.505
2.3479	80.238
2.3468	79.999
2.3458	79.788
2.3447	79.599
2.3436	79.437
2.3426	79.313
2.3415	79.235
2.3405	79.207
2.3394	79.221
2.3384	79.266
2.3373	79.336
2.3363	79.426
2.3352	79.537
2.3342	79.671
2.3331	79.828
2.3321	80.013
2.3310	80.221
2.3300	80.438
2.3289	80.664
2.3279	80.892
2.3268	81.118
2.3258	81.337
2.3247	81.542
2.3237	81.737
2.3226	81.923
2.3216	82.101
2.3206	82.267
2.3195	82.421
2.3185	82.567
2.3175	82.709
2.3164	82.843
2.3154	82.969
2.3144	83.089
2.3133	83.199
2.3123	83.290
2.3113	83.359
2.3102	83.415
2.3092	83.462
2.3082	83.503
2.3071	83.538
2.3061	83.573
2.3051	83.617
2.3041	83.674
2.3030	83.744
2.3020	83.827
2.3010	83.918
2.3000	84.008
2.2990	84.088
2.2979	84.158
2.2969	84.224
2.2959	84.294
2.2949	84.374
2.2939	84.464
2.2929	84.563
2.2918	84.670
2.2908	84.783
2.2898	84.900
2.2888	85.020
2.2878	85.145
2.2868	85.277
2.2858	85.418
2.2848	85.568
2.2838	85.722
2.2828	85.880
2.2818	86.042
2.2808	86.201
2.2798	86.356
2.2787	86.509
2.2777	86.664
2.2767	86.818
2.2757	86.964
2.2747	87.111
2.2738	87.263
2.2728	87.415
2.2718	87.567
2.2708	87.712
2.2698	87.838
2.2688	87.938
2.2678	88.015
2.2668	88.082
2.2658	88.152
2.2648	88.232
2.2638	88.330
2.2628	88.440
2.2618	88.549
2.2609	88.650
2.2599	88.734
2.2589	88.802
2.2579	88.859
2.2569	88.909
2.2559	88.959
2.2550	89.021
2.2540	89.097
2.2530	89.184
2.2520	89.276
2.2510	89.368
2.2501	89.451
2.2491	89.518
2.2481	89.568
2.2471	89.612
2.2462	89.660
2.2452	89.715
2.2442	89.779
2.2433	89.847
2.2423	89.916
2.2413	89.982
2.2403	90.039
2.2394	90.088
2.2384	90.135
2.2374	90.179
2.2365	90.218
2.2355	90.253
2.2345	90.286
2.2336	90.314
2.2326	90.335
2.2317	90.352
2.2307	90.370
2.2297	90.390
2.2288	90.411
2.2278	90.438
2.2269	90.463
2.2259	90.485
2.2250	90.504
2.2240	90.526
2.2231	90.546
2.2221	90.562
2.2211	90.579
2.2202	90.597
2.2192	90.612
2.2183	90.630
2.2173	90.652
2.2164	90.674
2.2155	90.681
2.2145	90.670
2.2136	90.646
2.2126	90.600
2.2117	90.542
2.2107	90.497
2.2098	90.475
2.2088	90.480
2.2079	90.510
2.2070	90.564
2.2060	90.627
2.2051	90.678
2.2041	90.717
2.2032	90.753
2.2023	90.795
2.2013	90.849
2.2004	90.915
2.1995	90.992
2.1985	91.065
2.1976	91.117
2.1967	91.148
2.1957	91.169
2.1948	91.188
2.1939	91.210
2.1930	91.241
2.1920	91.282
2.1911	91.321
2.1902	91.353
2.1893	91.381
2.1883	91.413
2.1874	91.444
2.1865	91.467
2.1856	91.490
2.1846	91.508
2.1837	91.507
2.1828	91.499
2.1819	91.503
2.1810	91.525
2.1800	91.551
2.1791	91.567
2.1782	91.575
2.1773	91.565
2.1764	91.533
2.1755	91.501
2.1746	91.492
2.1736	91.511
2.1727	91.541
2.1718	91.569
2.1709	91.586
2.1700	91.584
2.1691	91.557
2.1682	91.512
2.1673	91.463
2.1664	91.417
2.1655	91.372
2.1646	91.334
2.1637	91.316
2.1628	91.314
2.1619	91.319
2.1610	91.324
2.1601	91.334
2.1592	91.342
2.1583	91.346
2.1574	91.361
2.1565	91.400
2.1556	91.443
2.1547	91.479
2.1538	91.501
2.1529	91.509
2.1520	91.506
2.1511	91.498
2.1502	91.509
2.1493	91.547
2.1484	91.606
2.1475	91.680
2.1466	91.764
2.1458	91.851
2.1449	91.934
2.1440	92.005
2.1431	92.057
2.1422	92.095
2.1413	92.129
2.1404	92.162
2.1396	92.197
2.1387	92.236
2.1378	92.279
2.1369	92.323
2.1360	92.355
2.1352	92.376
2.1343	92.396
2.1334	92.414
2.1325	92.429
2.1316	92.440
2.1308	92.456
2.1299	92.479
2.1290	92.495
2.1281	92.503
2.1273	92.513
2.1264	92.526
2.1255	92.537
2.1247	92.549
2.1238	92.567
2.1229	92.593
2.1220	92.614
2.1212	92.632
2.1203	92.651
2.1194	92.665
2.1186	92.668
2.1177	92.665
2.1168	92.660
2.1160	92.660
2.1151	92.658
2.1143	92.661
2.1134	92.675
2.1125	92.683
2.1117	92.686
2.1108	92.689
2.1100	92.700
2.1091	92.720
2.1082	92.742
2.1074	92.771
2.1065	92.798
2.1057	92.810
2.1048	92.815
2.1040	92.822
2.1031	92.837
2.1023	92.856
2.1014	92.872
2.1005	92.882
2.0997	92.886
2.0988	92.883
2.0980	92.876
2.0971	92.869
2.0963	92.865
2.0955	92.860
2.0946	92.863
2.0938	92.883
2.0929	92.924
2.0921	92.971
2.0912	93.003
2.0904	93.009
2.0895	92.993
2.0887	92.960
2.0879	92.932
2.0870	92.924
2.0862	92.936
2.0853	92.955
2.0845	92.967
2.0837	92.957
2.0828	92.952
2.0820	92.943
2.0812	92.915
2.0803	93.018
2.0795	93.033
2.0760	93.033
2.0720	93.906
2.0680	93.967
2.0640	93.720
2.0600	93.426
2.0560	94.288
2.0520	93.266
2.0480	92.755
2.0440	92.570
2.0400	92.168
2.0360	92.456
2.0320	92.548
2.0280	92.503
2.0240	91.727
2.0200	91.690
2.0160	91.598
2.0120	91.323
2.0080	90.565
2.0040	90.500
2.0000	90.786
1.9960	90.403
1.9920	89.582
1.9880	89.009
1.9840	88.570
1.9800	88.118
1.9760	88.358
1.9720	88.373
1.9680	88.479
1.9640	88.554
1.9600	88.418
1.9560	88.268
1.9520	88.948
1.9480	88.857
1.9440	88.509
1.9400	88.238
1.9360	87.860
1.9320	87.690
1.9280	87.687
1.9240	87.744
1.9200	87.712
1.9160	87.527
1.9120	87.207
1.9080	87.587
1.9040	87.989
1.9000	88.865
1.8960	90.062
1.8920	90.481
1.8880	89.500
1.8840	89.117
1.8800	88.506
1.8760	88.566
1.8720	88.284
1.8680	88.373
1.8640	89.896
1.8600	91.594
1.8560	92.649
1.8520	92.672
1.8480	92.256
1.8440	90.874
1.8400	90.126
1.8360	90.350
1.8320	91.300
1.8280	91.879
1.8240	91.990
1.8200	91.651
1.8160	91.369
1.8120	90.837
1.8080	91.165
1.8040	91.735
1.8000	90.988
1.7960	90.547
1.7920	90.560
1.7880	90.536
1.7840	90.762
1.7800	90.471
1.7760	90.458
1.7720	90.609
1.7680	90.344
1.7640	89.854
1.7600	89.691
1.7560	89.793
1.7520	89.793
1.7480	89.745
1.7440	89.996
1.7400	90.458
1.7360	90.308
1.7320	90.547
1.7280	90.773
1.7240	90.938
1.7200	91.356
1.7160	91.687
1.7120	91.534
1.7080	90.635
1.7040	90.698
1.7000	90.736
1.6960	90.749
1.6920	90.913
1.6880	90.913
1.6840	91.011
1.6800	90.824
1.6760	90.749
1.6720	90.409
1.6680	90.435
1.6640	90.596
1.6600	90.619
1.6560	90.332
1.6520	90.319
1.6480	90.094
1.6440	90.534
1.6400	91.087
1.6360	90.759
1.6320	90.332
1.6280	90.784
1.6240	90.557
1.6200	90.244
1.6160	89.654
1.6120	89.803
1.6080	89.803
1.6040	89.803
1.6000	89.742
1.5960	90.006
1.5920	90.531
1.5880	90.328
1.5840	90.252
1.5800	90.177
1.5760	90.266
1.5720	90.305
1.5680	90.482
1.5640	90.469
1.5600	89.736
1.5560	89.742
1.5520	90.075
1.5480	90.305
1.5440	89.987
1.5400	89.689
1.5360	89.643
1.5320	89.717
1.5280	89.555
1.5240	89.436
1.5200	89.541
1.5160	89.736
1.5120	89.352
1.5080	88.970
1.5040	88.170
1.5000	88.050
1.4960	88.062
1.4920	89.210
1.4880	90.303
1.4840	88.910
1.4800	88.576
1.4760	88.576
1.4720	88.503
1.4680	88.357
1.4640	88.455
1.4600	88.620
1.4560	88.382
1.4520	88.061
1.4480	88.134
1.4440	87.581
1.4400	87.187
1.4360	87.187
1.4320	87.406
1.4280	87.705
1.4240	87.793
1.4200	87.721
1.4160	87.319
1.4120	86.652
1.4080	85.795
1.4040	86.060
1.4000	86.553
1.3960	87.421
1.3920	88.758
1.3880	89.251
1.3840	88.907
1.3800	88.504
1.3760	88.952
1.3720	90.810
1.3680	90.901
1.3640	90.656
1.3600	90.372
1.3560	90.417
1.3520	90.421
1.3480	90.926
1.3440	91.069
1.3400	89.778
1.3360	89.058
1.3320	88.392
1.3280	87.698
1.3240	87.795
1.3200	88.227
1.3160	88.372
1.3120	88.306
1.3080	88.089
1.3040	87.945
1.3000	87.802
1.2960	87.715
1.2920	87.842
1.2880	87.636
1.2840	87.199
1.2800	87.046
1.2760	87.052
1.2720	86.969
1.2680	87.452
1.2640	88.766
1.2600	88.999
1.2560	89.572
1.2520	89.462
1.2480	89.508
1.2440	89.147
1.2400	89.117
1.2360	89.177
1.2320	89.065
1.2280	87.925
1.2240	87.625
1.2200	88.055
1.2160	88.055
1.2120	88.081
1.2080	88.153
1.2040	88.194
1.2000	87.921
1.1960	87.942
1.1920	87.668
1.1880	87.524
1.1840	87.397
1.1800	87.429
1.1760	87.286
1.1720	87.144
1.1680	86.745
1.1640	86.430
1.1600	86.233
1.1560	85.819
1.1520	85.696
1.1480	86.239
1.1440	86.233
1.1400	86.713
1.1360	87.442
1.1320	86.555
1.1280	86.939
1.1240	86.627
1.1200	87.149
1.1160	87.367
1.1120	86.644
1.1080	86.661
1.1040	86.590
1.1000	86.483
1.0960	86.288
1.0920	86.396
1.0880	86.209
1.0840	86.404
1.0800	86.279
1.0760	86.315
1.0720	85.924
1.0680	86.476
1.0640	86.031
1.0600	85.475
1.0560	86.006
1.0520	85.996
1.0480	86.049
1.0440	85.335
1.0400	85.247
1.0360	85.033
1.0320	85.658
1.0280	85.377
1.0240	85.270
1.0200	84.996
1.0160	85.313
1.0120	85.622
1.0080	85.377
1.0040	84.921
1.0000	84.675
0.99600	85.023
0.99200	85.322
0.98800	85.004
0.98400	84.795
0.98000	84.312
0.97600	84.568
0.97200	84.638
0.96800	84.530
0.96400	84.285
0.96000	84.442
0.95600	84.669
0.95200	84.432
0.94800	84.224
0.94400	84.305
0.94000	84.432
0.93600	84.343
0.93200	84.432
0.92800	84.224
0.92400	84.175
0.92000	84.401
0.91600	84.382
0.91200	84.164
0.90800	84.115
0.90400	84.107
0.90000	84.176
0.89600	83.950
0.89200	84.019
0.88800	83.930
0.88400	84.067
0.88000	84.502
0.87600	84.078
0.87200	83.971
0.86800	84.230
0.86400	84.331
0.86000	84.481
0.85600	84.232
0.85200	84.443
0.84800	84.153
0.84400	84.232
0.84000	84.203
0.83600	84.155
0.83200	84.452
0.82800	84.452
0.82400	84.589
0.82000	84.398
0.81600	84.366
0.81200	84.721
0.80800	84.451
0.80400	84.231
0.80000	84.200
0.79900	84.200
0.79800	84.200
0.79700	84.628
0.79600	84.618
0.79500	84.296
0.79400	84.315
0.79300	84.144
0.79200	84.067
0.79100	83.971
0.79000	84.203
0.78900	84.296
0.78800	83.876
0.78700	84.066
0.78600	84.531
0.78500	84.531
0.78400	84.144
0.78300	84.029
0.78200	83.970
0.78100	84.293
0.78000	84.528
0.77900	84.606
0.77800	84.125
0.77700	83.777
0.77600	83.622
0.77500	83.649
0.77400	83.637
0.77300	83.970
0.77200	84.141
0.77100	83.854
0.77000	83.854
0.76900	84.044
0.76800	83.811
0.76700	84.141
0.76600	84.231
0.76500	83.658
0.76400	83.639
0.76300	83.561
0.76200	83.348
0.76100	83.456
0.76000	83.580
0.75900	83.542
0.75800	83.523
0.75700	83.697
0.75600	83.542
0.75500	83.561
0.75400	84.122
0.75300	83.716
0.75200	83.368
0.75100	83.097
0.75000	83.174
0.74900	82.981
0.74800	82.654
0.74700	83.323
0.74600	83.368
0.74500	83.265
0.74400	83.420
0.74300	83.168
0.74200	82.937
0.74100	83.362
0.74000	83.537
0.73900	83.265
0.73800	82.685
0.73700	82.471
0.73600	82.395
0.73500	82.685
0.73400	82.961
0.73300	83.420
0.73200	83.226
0.73100	83.071
0.73000	82.722
0.72900	82.857
0.72800	82.688
0.72700	82.819
0.72600	82.096
0.72500	82.916
0.72400	83.207
0.72300	82.358
0.72200	81.876
0.72100	82.258
0.72000	82.548
0.71900	82.548
0.71800	82.565
0.71700	82.488
0.71600	81.973
0.71500	82.002
0.71400	82.836
0.71300	82.855
0.71200	82.543
0.71100	82.028
0.71000	81.835
0.70900	81.244
0.70800	81.019
0.70700	81.753
0.70600	82.174
0.70500	82.482
0.70400	82.482
0.70300	81.611
0.70200	82.133
0.70100	82.345
0.70000	81.782
0.69900	83.027
0.69800	83.111
0.69700	83.129
0.69600	82.806
0.69500	82.767
0.69400	82.306
0.69300	81.832
0.69200	81.732
0.69100	81.968
0.69000	81.090
0.68900	81.481
0.68800	81.747
0.68700	81.768
0.68600	81.868
0.68500	82.306
0.68400	82.147
0.68300	82.406
0.68200	82.444
0.68100	81.783
0.68000	81.246
0.67900	81.112
0.67800	81.012
0.67700	81.899
0.67600	81.338
0.67500	81.002
0.67400	81.281
0.67300	81.303
0.67200	80.812
0.67100	81.382
0.67000	81.002
0.66900	80.668
0.66800	81.597
0.66700	81.755
0.66600	81.193
0.66500	80.902
0.66400	80.746
0.66300	81.259
0.66200	81.475
0.66100	81.698
0.66000	81.058
0.65900	80.790
0.65800	80.926
0.65700	81.061
0.65600	80.802
0.65500	80.690
0.65400	81.005
0.65300	81.128
0.65200	80.857
0.65100	80.733
0.65000	80.700
0.64900	80.589
0.64800	80.791
0.64700	80.926
0.64600	80.903
0.64500	80.521
0.64400	80.488
0.64300	80.791
0.64200	80.645
0.64100	80.802
0.64000	80.600
0.63900	80.802
0.63800	80.396
0.63700	80.241
0.63600	80.365
0.63500	80.287
0.63400	80.365
0.63300	80.264
0.63200	79.837
0.63100	79.480
0.63000	79.946
0.62900	80.047
0.62800	79.844
0.62700	79.611
0.62600	79.813
0.62500	79.712
0.62400	79.891
0.62300	80.306
0.62200	80.306
0.62100	80.024
0.62000	80.001
0.61900	80.001
0.61800	79.774
0.61700	79.516
0.61600	79.337
0.61500	78.778
0.61400	78.677
0.61300	78.625
0.61200	79.106
0.61100	78.802
0.61000	78.903
0.60900	78.903
0.60800	78.802
0.60700	78.778
0.60600	79.033
0.60500	78.907
0.60400	78.603
0.60300	78.450
0.60200	78.760
0.60100	78.764
0.60000	78.224
0.59900	77.739
0.59800	77.943
0.59700	78.406
0.59600	78.511
0.59500	78.746
0.59400	78.486
0.59300	78.357
0.59200	77.892
0.59100	77.995
0.59000	77.866
0.58900	78.279
0.58800	78.254
0.58700	78.201
0.58600	77.995
0.58500	77.969
0.58400	78.098
0.58300	78.125
0.58200	77.558
0.58100	78.047
0.58000	77.582
0.57900	77.530
0.57800	77.995
0.57700	78.201
0.57600	78.098
0.57500	78.098
0.57400	77.760
0.57300	77.867
0.57200	77.462
0.57100	77.208
0.57000	77.054
0.56900	76.776
0.56800	76.599
0.56700	76.498
0.56600	76.268
0.56500	76.166
0.56400	76.065
0.56300	75.686
0.56200	75.484
0.56100	75.326
0.56000	75.344
0.55900	72.513
0.55800	74.758
0.55700	74.745
0.55600	74.424
0.55500	73.857
0.55400	73.373
0.55300	73.054
0.55200	73.032
0.55100	72.859
0.55000	73.172
0.54900	73.672
0.54800	73.672
0.54700	72.788
0.54600	73.304
0.54500	72.847
0.54400	72.288
0.54300	72.630
0.54200	72.699
0.54100	72.917
0.54000	72.037
0.53900	71.407
0.53800	71.283
0.53700	71.729
0.53600	71.455
0.53500	71.157
0.53400	71.063
0.53300	70.991
0.53200	70.522
0.53100	70.391
0.53000	70.593
0.52900	70.661
0.52800	70.330
0.52700	69.832
0.52600	69.237
0.52500	69.600
0.52400	69.534
0.52300	68.480
0.52200	68.514
0.52100	68.545
0.52000	68.374
0.51900	68.301
0.51800	67.818
0.51700	67.359
0.51600	67.777
0.51500	67.428
0.51400	66.684
0.51300	66.440
0.51200	66.919
0.51100	66.540
0.51000	66.523
0.50900	66.648
0.50800	65.654
0.50700	65.555
0.50600	64.795
0.50500	64.864
0.50400	64.850
0.50300	64.482
0.50200	64.466
0.50100	64.371
0.50000	64.431
0.49900	64.354
0.49800	63.916
0.49700	63.958
0.49600	63.621
0.49500	63.602
0.49400	63.048
0.49300	61.997
0.49200	62.596
0.49100	62.635
0.49000	62.712
0.48900	62.222
0.48800	61.771
0.48700	61.754
0.48600	61.420
0.48500	61.126
0.48400	60.829
0.48300	61.058
0.48200	61.558
0.48100	61.130
0.48000	60.959
0.47900	60.594
0.47800	60.230
0.47700	60.329
0.47600	60.243
0.47500	60.187
0.47400	59.736
0.47300	59.472
0.47200	59.570
0.47100	59.583
0.47000	59.572
0.46900	59.115
0.46800	59.016
0.46700	59.125
0.46600	59.016
0.46500	58.656
0.46400	58.365
0.46300	58.651
0.46200	58.242
0.46100	58.492
0.46000	58.288
0.45900	58.537
0.45800	58.621
0.45700	58.433
0.45600	58.356
0.45500	57.937
0.45400	57.994
0.45300	57.410
0.45200	57.110
0.45100	57.584
0.45000	57.649
0.44900	57.389
0.44800	57.184
0.44700	57.138
0.44600	56.878
0.44500	56.304
0.44400	55.891
0.44300	56.258
0.44200	56.166
0.44100	55.905
0.44000	55.805
0.43900	55.279
0.43800	55.074
0.43700	55.231
0.43600	54.556
0.43500	54.243
0.43400	53.931
0.43300	53.721
0.43200	52.996
0.43100	53.517
0.43000	52.991
0.42900	52.665
0.42800	52.547
0.42700	52.513
0.42600	52.207
0.42500	51.536
0.42400	51.261
0.42300	51.191
0.42200	50.226
0.42100	50.513
0.42000	50.849
0.41900	50.096
0.41800	49.745
0.41700	49.641
0.41600	49.537
0.41500	49.226
0.41400	49.163
0.41300	48.931
0.41200	48.893
0.41100	48.694
0.41000	48.016
0.40900	47.513
0.40800	47.789
0.40700	47.607
0.40600	47.607
0.40500	47.335
0.40400	47.165
0.40300	46.753
0.40200	46.715
0.40100	46.358
0.40000	46.421
0.0000	
