Name: Oolitic Limestone 
Type:  Rocks
Class:  Sedimentary
Subclass: Limestone
Particle Size:  0 - 75 Micrometers
Sample No.:  limestone.7
Owner:  JHU
Wavelength Range:  All
Origin:  Sample No. 358,  The Hunt and Salisbury Collection at the U.S. 
Geological Survey, Denver, Co.
Description: Ooids in the sample are small (0.5-0.75 mm) with laminar 
structures largely destroyed by dolomitic recrystallization. Carbonate 
crystals show a heterogeneous distribution, from microcrystalline to 
fine medium-grained. Abundant quartz fragments and some altered plagioclase 
(albite twinning), opaques, carbonaceous material, ferruginous clay(?), 
and a brown-green to colorless micaceous mineral are also present.
Measurement:  Directional (10 Degree) Hemispherical Reflectance
First Column:  X
Second Column:  Y  
X Units:  Wavelength (micrometers)
Y Units:  Reflectance (percent)
First X Value: 14.9831
Last X Value:  0.4
Number of X Values:  2868
Additional Information:  None

14.983	9.7301
14.940	9.4892
14.897	9.1742
14.854	8.8571
14.812	8.5152
14.770	8.1545
14.728	7.7455
14.686	7.3086
14.645	6.8371
14.603	6.2965
14.562	5.6921
14.521	5.0705
14.481	4.4557
14.441	3.9321
14.400	3.6081
14.361	3.5646
14.321	3.8004
14.281	4.2478
14.242	4.7628
14.203	5.1879
14.164	5.4053
14.126	5.4101
14.087	5.2720
14.049	5.0925
14.011	4.9625
13.973	4.9196
13.936	4.8992
13.899	4.7901
13.861	4.5196
13.824	4.1149
13.788	3.6801
13.751	3.3666
13.715	3.3190
13.679	3.6157
13.643	4.2293
13.607	5.0482
13.571	5.9258
13.536	6.7448
13.500	7.4363
13.465	7.9729
13.430	8.3556
13.396	8.6028
13.361	8.7323
13.327	8.7506
13.293	8.6604
13.259	8.4754
13.225	8.2090
13.191	7.8699
13.158	7.4595
13.124	6.9875
13.091	6.4608
13.058	5.8901
13.026	5.2973
12.993	4.7098
12.960	4.1535
12.928	3.6564
12.896	3.2451
12.864	2.9413
12.832	2.7447
12.800	2.6431
12.769	2.6142
12.737	2.6239
12.706	2.6339
12.675	2.6180
12.644	2.5687
12.614	2.4866
12.583	2.3750
12.552	2.2483
12.522	2.1223
12.492	2.0144
12.462	1.9398
12.432	1.9239
12.402	1.9971
12.373	2.1827
12.343	2.4918
12.314	2.9230
12.285	3.4566
12.256	4.0623
12.227	4.7025
12.198	5.3509
12.169	5.9907
12.141	6.6131
12.113	7.2118
12.084	7.7865
12.056	8.3312
12.028	8.8420
12.000	9.3220
11.973	9.7724
11.945	10.170
11.918	10.490
11.890	10.672
11.863	10.639
11.836	10.384
11.809	9.9932
11.782	9.6270
11.755	9.4409
11.729	9.5295
11.702	9.9242
11.676	10.466
11.650	10.881
11.624	10.949
11.598	10.545
11.572	9.6597
11.546	8.3965
11.520	6.9550
11.495	5.5832
11.469	4.4493
11.444	3.6268
11.419	3.1208
11.394	2.8697
11.369	2.7878
11.344	2.8252
11.319	3.0019
11.294	3.3936
11.270	4.0813
11.245	5.0878
11.221	6.3452
11.197	7.7024
11.173	8.9656
11.149	9.9721
11.125	10.644
11.101	10.999
11.077	11.131
11.054	11.149
11.030	11.142
11.007	11.158
10.983	11.205
10.960	11.271
10.937	11.340
10.914	11.404
10.891	11.460
10.868	11.505
10.846	11.539
10.823	11.563
10.800	11.578
10.778	11.588
10.756	11.595
10.733	11.598
10.711	11.591
10.689	11.574
10.667	11.550
10.645	11.525
10.623	11.503
10.602	11.492
10.580	11.500
10.558	11.524
10.537	11.553
10.516	11.579
10.494	11.601
10.473	11.614
10.452	11.617
10.431	11.609
10.410	11.591
10.389	11.561
10.368	11.516
10.348	11.460
10.327	11.398
10.306	11.332
10.286	11.260
10.266	11.176
10.245	11.074
10.225	10.950
10.205	10.794
10.185	10.601
10.165	10.374
10.145	10.117
10.125	9.8428
10.106	9.5711
10.086	9.3294
10.066	9.1335
10.047	8.9793
10.027	8.8576
10.008	8.7541
9.9887	8.6514
9.9695	8.5370
9.9504	8.4105
9.9313	8.2755
9.9123	8.1323
9.8934	7.9793
9.8746	7.8185
9.8558	7.6447
9.8371	7.4543
9.8185	7.2511
9.7999	7.0443
9.7814	6.8435
9.7630	6.6529
9.7447	6.4736
9.7264	6.3005
9.7082	6.1200
9.6900	5.9258
9.6719	5.7196
9.6539	5.5133
9.6360	5.3224
9.6181	5.1588
9.6003	5.0285
9.5825	4.9324
9.5649	4.8590
9.5472	4.7977
9.5297	4.7384
9.5122	4.6828
9.4948	4.6392
9.4774	4.6205
9.4601	4.6387
9.4429	4.7027
9.4257	4.8083
9.4086	4.9447
9.3916	5.0923
9.3746	5.2296
9.3577	5.3378
9.3408	5.3994
9.3240	5.4001
9.3073	5.3390
9.2906	5.2258
9.2740	5.0788
9.2574	4.9151
9.2409	4.7538
9.2245	4.6075
9.2081	4.4775
9.1918	4.3603
9.1755	4.2532
9.1593	4.1542
9.1431	4.0612
9.1270	3.9750
9.1110	3.8970
9.0950	3.8279
9.0791	3.7703
9.0632	3.7249
9.0474	3.6908
9.0316	3.6669
9.0159	3.6491
9.0003	3.6313
8.9847	3.6086
8.9691	3.5807
8.9536	3.5492
8.9382	3.5115
8.9228	3.4701
8.9075	3.4303
8.8922	3.3950
8.8770	3.3654
8.8618	3.3450
8.8467	3.3337
8.8316	3.3275
8.8166	3.3183
8.8016	3.3000
8.7867	3.2726
8.7718	3.2401
8.7570	3.2079
8.7423	3.1790
8.7275	3.1518
8.7129	3.1236
8.6982	3.0869
8.6837	3.0369
8.6692	2.9756
8.6547	2.9147
8.6403	2.8695
8.6259	2.8522
8.6116	2.8688
8.5973	2.9188
8.5830	2.9896
8.5688	3.0656
8.5547	3.1331
8.5406	3.1864
8.5266	3.2271
8.5126	3.2617
8.4986	3.2946
8.4847	3.3308
8.4708	3.3704
8.4570	3.4130
8.4432	3.4594
8.4295	3.5084
8.4158	3.5596
8.4022	3.6136
8.3886	3.6678
8.3750	3.7218
8.3615	3.7793
8.3481	3.8468
8.3347	3.9259
8.3213	4.0159
8.3079	4.1194
8.2946	4.2376
8.2814	4.3690
8.2682	4.5170
8.2550	4.6887
8.2419	4.8872
8.2288	5.1084
8.2158	5.3499
8.2028	5.6106
8.1898	5.8830
8.1769	6.1567
8.1640	6.4258
8.1512	6.6837
8.1384	6.9247
8.1256	7.1490
8.1129	7.3612
8.1002	7.5641
8.0876	7.7593
8.0750	7.9506
8.0624	8.1453
8.0499	8.3456
8.0374	8.5552
8.0250	8.7788
8.0126	9.0130
8.0002	9.2451
7.9879	9.4632
7.9756	9.6602
7.9634	9.8316
7.9512	9.9752
7.9390	10.096
7.9268	10.204
7.9147	10.303
7.9027	10.394
7.8906	10.479
7.8786	10.558
7.8667	10.630
7.8548	10.692
7.8429	10.751
7.8310	10.814
7.8192	10.890
7.8075	10.987
7.7957	11.106
7.7840	11.247
7.7723	11.400
7.7607	11.550
7.7491	11.688
7.7375	11.812
7.7260	11.925
7.7145	12.027
7.7031	12.122
7.6916	12.215
7.6802	12.301
7.6689	12.373
7.6575	12.423
7.6462	12.451
7.6350	12.456
7.6238	12.439
7.6126	12.408
7.6014	12.375
7.5903	12.336
7.5792	12.290
7.5681	12.230
7.5571	12.151
7.5461	12.054
7.5351	11.941
7.5242	11.819
7.5133	11.694
7.5024	11.568
7.4916	11.443
7.4807	11.317
7.4700	11.191
7.4592	11.066
7.4485	10.936
7.4378	10.796
7.4272	10.640
7.4165	10.462
7.4059	10.260
7.3954	10.031
7.3848	9.7805
7.3743	9.5115
7.3639	9.2278
7.3534	8.9325
7.3430	8.6296
7.3326	8.3203
7.3223	8.0063
7.3119	7.6889
7.3016	7.3692
7.2914	7.0528
7.2811	6.7490
7.2709	6.4651
7.2607	6.2029
7.2506	5.9618
7.2404	5.7414
7.2303	5.5379
7.2203	5.3414
7.2102	5.1477
7.2002	4.9580
7.1902	4.7707
7.1803	4.5814
7.1703	4.3946
7.1604	4.2227
7.1506	4.0728
7.1407	3.9470
7.1309	3.8499
7.1211	3.7855
7.1113	3.7507
7.1016	3.7381
7.0919	3.7471
7.0822	3.7779
7.0725	3.8217
7.0629	3.8681
7.0533	3.9084
7.0437	3.9345
7.0341	3.9397
7.0246	3.9214
7.0151	3.8826
7.0056	3.8269
6.9962	3.7576
6.9867	3.6804
6.9773	3.6032
6.9679	3.5309
6.9586	3.4698
6.9493	3.4227
6.9400	3.3869
6.9307	3.3592
6.9214	3.3353
6.9122	3.3112
6.9030	3.2851
6.8938	3.2560
6.8847	3.2278
6.8755	3.2006
6.8664	3.1729
6.8573	3.1520
6.8483	3.1395
6.8393	3.1319
6.8302	3.1276
6.8213	3.1248
6.8123	3.1255
6.8034	3.1274
6.7944	3.1312
6.7855	3.1433
6.7767	3.1650
6.7678	3.1909
6.7590	3.2162
6.7502	3.2363
6.7414	3.2510
6.7327	3.2583
6.7239	3.2607
6.7152	3.2643
6.7065	3.2761
6.6979	3.2972
6.6892	3.3244
6.6806	3.3552
6.6720	3.3879
6.6634	3.4180
6.6549	3.4447
6.6464	3.4729
6.6378	3.5084
6.6294	3.5546
6.6209	3.6079
6.6124	3.6650
6.6040	3.7235
6.5956	3.7784
6.5872	3.8269
6.5789	3.8724
6.5705	3.9205
6.5622	3.9768
6.5539	4.0420
6.5457	4.1149
6.5374	4.1954
6.5292	4.2781
6.5209	4.3588
6.5128	4.4408
6.5046	4.5289
6.4964	4.6286
6.4883	4.7432
6.4802	4.8713
6.4721	5.0103
6.4640	5.1507
6.4560	5.2798
6.4480	5.3935
6.4399	5.4918
6.4320	5.5825
6.4240	5.6796
6.4160	5.7920
6.4081	5.9351
6.4002	6.1186
6.3923	6.3351
6.3844	6.5690
6.3766	6.7999
6.3687	7.0026
6.3609	7.1480
6.3531	7.2077
6.3454	7.1758
6.3376	7.0633
6.3299	6.8781
6.3221	6.6368
6.3144	6.3628
6.3068	6.0762
6.2991	5.7890
6.2914	5.5107
6.2838	5.2538
6.2762	5.0245
6.2686	4.8213
6.2611	4.6421
6.2535	4.4843
6.2460	4.3453
6.2385	4.2257
6.2310	4.1272
6.2235	4.0540
6.2160	4.0074
6.2086	3.9887
6.2011	3.9960
6.1937	4.0221
6.1863	4.0604
6.1790	4.1092
6.1716	4.1646
6.1643	4.2250
6.1570	4.2885
6.1496	4.3517
6.1424	4.4124
6.1351	4.4668
6.1278	4.5147
6.1206	4.5594
6.1134	4.6042
6.1062	4.6525
6.0990	4.7036
6.0918	4.7534
6.0847	4.7967
6.0776	4.8318
6.0704	4.8609
6.0633	4.8910
6.0563	4.9279
6.0492	4.9786
6.0421	5.0477
6.0351	5.1294
6.0281	5.2121
6.0211	5.2881
6.0141	5.3549
6.0071	5.4112
6.0002	5.4555
5.9932	5.4908
5.9863	5.5242
5.9794	5.5538
5.9725	5.5756
5.9657	5.5912
5.9588	5.6085
5.9520	5.6365
5.9451	5.6857
5.9383	5.7669
5.9315	5.8891
5.9247	6.0473
5.9180	6.2285
5.9112	6.4210
5.9045	6.6181
5.8978	6.8189
5.8911	7.0266
5.8844	7.2440
5.8777	7.4772
5.8711	7.7273
5.8644	7.9840
5.8578	8.2365
5.8512	8.4780
5.8446	8.7053
5.8380	8.9180
5.8314	9.1210
5.8249	9.3239
5.8184	9.5347
5.8118	9.7514
5.8053	9.9633
5.7988	10.161
5.7923	10.342
5.7859	10.503
5.7794	10.651
5.7730	10.793
5.7666	10.939
5.7602	11.095
5.7538	11.259
5.7474	11.425
5.7410	11.591
5.7347	11.752
5.7283	11.898
5.7220	12.022
5.7157	12.120
5.7094	12.187
5.7031	12.222
5.6969	12.223
5.6906	12.195
5.6844	12.137
5.6782	12.046
5.6719	11.917
5.6657	11.749
5.6596	11.542
5.6534	11.302
5.6472	11.041
5.6411	10.768
5.6349	10.491
5.6288	10.206
5.6227	9.9055
5.6166	9.5749
5.6106	9.1937
5.6045	8.7475
5.5984	8.2381
5.5924	7.6849
5.5864	7.1225
5.5804	6.5958
5.5744	6.1544
5.5684	5.8278
5.5624	5.6177
5.5564	5.5098
5.5505	5.4787
5.5445	5.4939
5.5386	5.5270
5.5327	5.5654
5.5268	5.6097
5.5209	5.6663
5.5151	5.7456
5.5092	5.8681
5.5033	6.0618
5.4975	6.3564
5.4917	6.7810
5.4859	7.3602
5.4801	8.1015
5.4743	8.9881
5.4685	9.9787
5.4628	11.016
5.4570	12.032
5.4513	12.958
5.4455	13.741
5.4398	14.351
5.4341	14.770
5.4284	14.999
5.4228	15.049
5.4171	14.940
5.4114	14.690
5.4058	14.319
5.4002	13.857
5.3945	13.338
5.3889	12.799
5.3833	12.275
5.3778	11.799
5.3722	11.397
5.3666	11.082
5.3611	10.856
5.3555	10.718
5.3500	10.664
5.3445	10.682
5.3390	10.760
5.3335	10.883
5.3280	11.040
5.3225	11.221
5.3171	11.420
5.3116	11.639
5.3062	11.881
5.3008	12.156
5.2954	12.469
5.2900	12.828
5.2846	13.239
5.2792	13.705
5.2738	14.228
5.2684	14.808
5.2631	15.443
5.2578	16.138
5.2524	16.891
5.2471	17.694
5.2418	18.536
5.2365	19.394
5.2312	20.241
5.2260	21.044
5.2207	21.772
5.2154	22.403
5.2102	22.922
5.2050	23.324
5.1998	23.614
5.1945	23.803
5.1893	23.911
5.1842	23.955
5.1790	23.954
5.1738	23.926
5.1686	23.883
5.1635	23.829
5.1584	23.769
5.1532	23.704
5.1481	23.636
5.1430	23.571
5.1379	23.516
5.1328	23.472
5.1277	23.435
5.1227	23.396
5.1176	23.341
5.1126	23.255
5.1075	23.130
5.1025	22.964
5.0975	22.758
5.0925	22.519
5.0875	22.259
5.0825	21.998
5.0775	21.760
5.0726	21.572
5.0676	21.453
5.0627	21.406
5.0577	21.422
5.0528	21.478
5.0479	21.551
5.0430	21.617
5.0380	21.663
5.0332	21.690
5.0283	21.704
5.0234	21.714
5.0185	21.740
5.0137	21.797
5.0088	21.897
5.0040	22.048
4.9992	22.256
4.9944	22.531
4.9896	22.876
4.9848	23.298
4.9800	23.801
4.9752	24.376
4.9704	25.002
4.9657	25.649
4.9609	26.285
4.9562	26.880
4.9514	27.411
4.9467	27.876
4.9420	28.291
4.9373	28.685
4.9326	29.100
4.9279	29.576
4.9232	30.147
4.9186	30.833
4.9139	31.632
4.9092	32.523
4.9046	33.475
4.9000	34.450
4.8953	35.407
4.8907	36.313
4.8861	37.145
4.8815	37.897
4.8769	38.563
4.8723	39.149
4.8678	39.664
4.8632	40.118
4.8586	40.517
4.8541	40.869
4.8495	41.183
4.8450	41.465
4.8405	41.715
4.8360	41.941
4.8315	42.145
4.8270	42.332
4.8225	42.505
4.8180	42.668
4.8135	42.825
4.8090	42.972
4.8046	43.109
4.8001	43.235
4.7957	43.348
4.7913	43.448
4.7868	43.534
4.7824	43.608
4.7780	43.669
4.7736	43.716
4.7692	43.750
4.7648	43.771
4.7605	43.775
4.7561	43.760
4.7517	43.720
4.7474	43.653
4.7431	43.562
4.7387	43.448
4.7344	43.313
4.7301	43.154
4.7258	42.970
4.7215	42.752
4.7172	42.495
4.7129	42.193
4.7086	41.848
4.7043	41.464
4.7000	41.047
4.6958	40.609
4.6915	40.170
4.6873	39.749
4.6831	39.364
4.6788	39.029
4.6746	38.750
4.6704	38.529
4.6662	38.363
4.6620	38.249
4.6578	38.190
4.6536	38.185
4.6495	38.230
4.6453	38.314
4.6411	38.425
4.6370	38.548
4.6328	38.673
4.6287	38.794
4.6246	38.920
4.6205	39.064
4.6163	39.233
4.6122	39.434
4.6081	39.666
4.6040	39.924
4.6000	40.195
4.5959	40.467
4.5918	40.732
4.5877	40.985
4.5837	41.217
4.5796	41.428
4.5756	41.617
4.5716	41.784
4.5675	41.931
4.5635	42.062
4.5595	42.181
4.5555	42.285
4.5515	42.372
4.5475	42.441
4.5435	42.488
4.5395	42.515
4.5356	42.524
4.5316	42.520
4.5276	42.506
4.5237	42.484
4.5197	42.455
4.5158	42.416
4.5119	42.366
4.5080	42.306
4.5040	42.237
4.5001	42.161
4.4962	42.082
4.4923	42.005
4.4884	41.925
4.4846	41.840
4.4807	41.749
4.4768	41.657
4.4730	41.568
4.4691	41.493
4.4652	41.444
4.4614	41.430
4.4576	41.452
4.4537	41.507
4.4499	41.591
4.4461	41.697
4.4423	41.820
4.4385	41.959
4.4347	42.114
4.4309	42.288
4.4271	42.480
4.4233	42.688
4.4196	42.906
4.4158	43.129
4.4120	43.355
4.4083	43.579
4.4045	43.799
4.4008	44.017
4.3971	44.234
4.3934	44.449
4.3896	44.659
4.3859	44.863
4.3822	45.061
4.3785	45.248
4.3748	45.422
4.3711	45.576
4.3674	45.709
4.3638	45.818
4.3601	45.893
4.3564	45.932
4.3528	45.935
4.3491	45.911
4.3455	45.867
4.3418	45.814
4.3382	45.765
4.3346	45.727
4.3310	45.699
4.3273	45.677
4.3237	45.659
4.3201	45.645
4.3165	45.636
4.3129	45.634
4.3094	45.639
4.3058	45.648
4.3022	45.654
4.2986	45.655
4.2951	45.646
4.2915	45.629
4.2880	45.612
4.2844	45.604
4.2809	45.615
4.2774	45.652
4.2738	45.722
4.2703	45.819
4.2668	45.937
4.2633	46.060
4.2598	46.176
4.2563	46.274
4.2528	46.352
4.2493	46.410
4.2458	46.452
4.2424	46.484
4.2389	46.510
4.2354	46.534
4.2320	46.557
4.2285	46.585
4.2251	46.621
4.2216	46.664
4.2182	46.714
4.2148	46.767
4.2113	46.819
4.2079	46.864
4.2045	46.898
4.2011	46.921
4.1977	46.929
4.1943	46.923
4.1909	46.906
4.1875	46.881
4.1841	46.851
4.1808	46.816
4.1774	46.777
4.1740	46.729
4.1707	46.670
4.1673	46.598
4.1640	46.518
4.1606	46.436
4.1573	46.358
4.1540	46.290
4.1506	46.232
4.1473	46.180
4.1440	46.129
4.1407	46.076
4.1374	46.019
4.1341	45.957
4.1308	45.889
4.1275	45.815
4.1242	45.730
4.1209	45.632
4.1177	45.520
4.1144	45.393
4.1111	45.253
4.1079	45.095
4.1046	44.919
4.1014	44.726
4.0981	44.515
4.0949	44.286
4.0917	44.040
4.0884	43.774
4.0852	43.483
4.0820	43.162
4.0788	42.809
4.0756	42.425
4.0724	42.012
4.0692	41.571
4.0660	41.098
4.0628	40.587
4.0596	40.027
4.0565	39.410
4.0533	38.723
4.0501	37.957
4.0470	37.105
4.0438	36.169
4.0406	35.153
4.0375	34.069
4.0344	32.936
4.0312	31.773
4.0281	30.596
4.0250	29.416
4.0218	28.235
4.0187	27.053
4.0156	25.864
4.0125	24.662
4.0094	23.444
4.0063	22.209
4.0032	20.959
4.0001	19.701
3.9970	18.444
3.9940	17.201
3.9909	15.995
3.9878	14.857
3.9847	13.826
3.9817	12.937
3.9786	12.213
3.9756	11.665
3.9725	11.287
3.9695	11.057
3.9665	10.948
3.9634	10.938
3.9604	11.005
3.9574	11.132
3.9544	11.305
3.9513	11.518
3.9483	11.763
3.9453	12.028
3.9423	12.300
3.9393	12.567
3.9363	12.821
3.9333	13.058
3.9304	13.291
3.9274	13.544
3.9244	13.847
3.9214	14.222
3.9185	14.678
3.9155	15.212
3.9126	15.799
3.9096	16.404
3.9067	16.989
3.9037	17.517
3.9008	17.970
3.8979	18.342
3.8949	18.646
3.8920	18.906
3.8891	19.147
3.8862	19.391
3.8833	19.647
3.8804	19.923
3.8775	20.228
3.8746	20.575
3.8717	20.977
3.8688	21.455
3.8659	22.016
3.8630	22.648
3.8601	23.320
3.8573	23.986
3.8544	24.597
3.8515	25.108
3.8487	25.491
3.8458	25.739
3.8430	25.861
3.8401	25.872
3.8373	25.788
3.8344	25.624
3.8316	25.384
3.8288	25.072
3.8259	24.702
3.8231	24.303
3.8203	23.917
3.8175	23.597
3.8147	23.402
3.8119	23.376
3.8091	23.539
3.8063	23.891
3.8035	24.406
3.8007	25.052
3.7979	25.790
3.7951	26.588
3.7924	27.421
3.7896	28.269
3.7868	29.117
3.7841	29.957
3.7813	30.782
3.7785	31.593
3.7758	32.396
3.7730	33.195
3.7703	33.999
3.7676	34.811
3.7648	35.630
3.7621	36.453
3.7594	37.271
3.7566	38.072
3.7539	38.839
3.7512	39.554
3.7485	40.204
3.7458	40.777
3.7431	41.268
3.7404	41.677
3.7377	42.010
3.7350	42.276
3.7323	42.486
3.7296	42.652
3.7269	42.791
3.7242	42.910
3.7216	43.019
3.7189	43.115
3.7162	43.196
3.7136	43.264
3.7109	43.321
3.7083	43.370
3.7056	43.418
3.7030	43.469
3.7003	43.523
3.6977	43.573
3.6950	43.611
3.6924	43.635
3.6898	43.646
3.6872	43.646
3.6845	43.638
3.6819	43.627
3.6793	43.614
3.6767	43.596
3.6741	43.572
3.6715	43.544
3.6689	43.508
3.6663	43.466
3.6637	43.418
3.6611	43.366
3.6585	43.306
3.6560	43.241
3.6534	43.174
3.6508	43.107
3.6482	43.038
3.6457	42.970
3.6431	42.903
3.6406	42.832
3.6380	42.755
3.6355	42.670
3.6329	42.581
3.6304	42.488
3.6278	42.390
3.6253	42.289
3.6227	42.186
3.6202	42.077
3.6177	41.964
3.6152	41.848
3.6127	41.730
3.6101	41.608
3.6076	41.484
3.6051	41.358
3.6026	41.227
3.6001	41.086
3.5976	40.938
3.5951	40.784
3.5926	40.618
3.5901	40.437
3.5876	40.243
3.5852	40.036
3.5827	39.816
3.5802	39.583
3.5777	39.344
3.5753	39.104
3.5728	38.860
3.5704	38.603
3.5679	38.329
3.5654	38.034
3.5630	37.722
3.5605	37.398
3.5581	37.076
3.5557	36.770
3.5532	36.489
3.5508	36.224
3.5484	35.963
3.5459	35.690
3.5435	35.387
3.5411	35.038
3.5387	34.636
3.5363	34.179
3.5338	33.665
3.5314	33.091
3.5290	32.454
3.5266	31.754
3.5242	30.992
3.5218	30.179
3.5195	29.333
3.5171	28.471
3.5147	27.605
3.5123	26.745
3.5099	25.902
3.5075	25.079
3.5052	24.279
3.5028	23.511
3.5004	22.780
3.4981	22.094
3.4957	21.447
3.4934	20.841
3.4910	20.277
3.4887	19.754
3.4863	19.271
3.4840	18.830
3.4816	18.436
3.4793	18.096
3.4770	17.814
3.4746	17.598
3.4723	17.451
3.4700	17.368
3.4677	17.334
3.4653	17.326
3.4630	17.322
3.4607	17.312
3.4584	17.294
3.4561	17.282
3.4538	17.302
3.4515	17.382
3.4492	17.534
3.4469	17.754
3.4446	18.027
3.4423	18.331
3.4400	18.634
3.4378	18.915
3.4355	19.165
3.4332	19.379
3.4309	19.554
3.4287	19.690
3.4264	19.794
3.4241	19.871
3.4219	19.927
3.4196	19.975
3.4174	20.027
3.4151	20.087
3.4129	20.149
3.4106	20.215
3.4084	20.281
3.4061	20.343
3.4039	20.403
3.4017	20.462
3.3994	20.521
3.3972	20.578
3.3950	20.629
3.3928	20.680
3.3906	20.731
3.3883	20.781
3.3861	20.826
3.3839	20.860
3.3817	20.875
3.3795	20.868
3.3773	20.835
3.3751	20.778
3.3729	20.696
3.3707	20.591
3.3685	20.465
3.3663	20.317
3.3641	20.147
3.3620	19.959
3.3598	19.761
3.3576	19.558
3.3554	19.363
3.3533	19.197
3.3511	19.081
3.3489	19.034
3.3468	19.065
3.3446	19.174
3.3425	19.351
3.3403	19.566
3.3382	19.785
3.3360	19.975
3.3339	20.114
3.3317	20.188
3.3296	20.194
3.3274	20.136
3.3253	20.029
3.3232	19.890
3.3210	19.740
3.3189	19.605
3.3168	19.519
3.3147	19.510
3.3126	19.603
3.3104	19.818
3.3083	20.161
3.3062	20.623
3.3041	21.179
3.3020	21.791
3.2999	22.413
3.2978	23.003
3.2957	23.530
3.2936	23.978
3.2915	24.341
3.2894	24.623
3.2874	24.833
3.2853	24.981
3.2832	25.079
3.2811	25.142
3.2790	25.182
3.2770	25.207
3.2749	25.222
3.2728	25.227
3.2708	25.222
3.2687	25.210
3.2666	25.190
3.2646	25.163
3.2625	25.131
3.2605	25.094
3.2584	25.050
3.2564	24.998
3.2543	24.939
3.2523	24.876
3.2503	24.807
3.2482	24.737
3.2462	24.669
3.2442	24.603
3.2421	24.537
3.2401	24.469
3.2381	24.402
3.2361	24.335
3.2340	24.265
3.2320	24.188
3.2300	24.104
3.2280	24.015
3.2260	23.924
3.2240	23.835
3.2220	23.754
3.2200	23.680
3.2180	23.612
3.2160	23.541
3.2140	23.462
3.2120	23.378
3.2100	23.291
3.2080	23.204
3.2060	23.111
3.2041	23.016
3.2021	22.925
3.2001	22.840
3.1981	22.758
3.1961	22.681
3.1942	22.604
3.1922	22.520
3.1902	22.422
3.1883	22.317
3.1863	22.218
3.1844	22.128
3.1824	22.046
3.1805	21.965
3.1785	21.880
3.1766	21.784
3.1746	21.678
3.1727	21.567
3.1707	21.465
3.1688	21.375
3.1669	21.295
3.1649	21.219
3.1630	21.141
3.1611	21.059
3.1591	20.970
3.1572	20.872
3.1553	20.771
3.1534	20.669
3.1515	20.571
3.1495	20.478
3.1476	20.390
3.1457	20.306
3.1438	20.223
3.1419	20.133
3.1400	20.042
3.1381	19.957
3.1362	19.875
3.1343	19.799
3.1324	19.730
3.1305	19.662
3.1286	19.590
3.1268	19.511
3.1249	19.433
3.1230	19.357
3.1211	19.278
3.1192	19.200
3.1173	19.123
3.1155	19.046
3.1136	18.972
3.1117	18.906
3.1099	18.847
3.1080	18.790
3.1061	18.730
3.1043	18.667
3.1024	18.597
3.1006	18.520
3.0987	18.444
3.0969	18.370
3.0950	18.299
3.0932	18.230
3.0913	18.167
3.0895	18.113
3.0876	18.067
3.0858	18.024
3.0840	17.987
3.0821	17.952
3.0803	17.915
3.0785	17.876
3.0766	17.839
3.0748	17.802
3.0730	17.763
3.0712	17.722
3.0694	17.682
3.0675	17.637
3.0657	17.588
3.0639	17.542
3.0621	17.503
3.0603	17.467
3.0585	17.434
3.0567	17.406
3.0549	17.378
3.0531	17.344
3.0513	17.308
3.0495	17.277
3.0477	17.250
3.0459	17.224
3.0441	17.198
3.0423	17.171
3.0406	17.138
3.0388	17.103
3.0370	17.071
3.0352	17.045
3.0334	17.024
3.0317	17.002
3.0299	16.976
3.0281	16.944
3.0264	16.907
3.0246	16.871
3.0228	16.837
3.0211	16.805
3.0193	16.777
3.0176	16.746
3.0158	16.708
3.0140	16.667
3.0123	16.624
3.0105	16.580
3.0088	16.539
3.0070	16.503
3.0053	16.472
3.0036	16.445
3.0018	16.417
3.0001	16.392
2.9984	16.370
2.9966	16.349
2.9949	16.328
2.9932	16.309
2.9914	16.290
2.9897	16.267
2.9880	16.237
2.9863	16.200
2.9845	16.156
2.9828	16.112
2.9811	16.073
2.9794	16.045
2.9777	16.025
2.9760	16.010
2.9743	15.994
2.9726	15.973
2.9709	15.945
2.9692	15.913
2.9675	15.883
2.9658	15.852
2.9641	15.816
2.9624	15.776
2.9607	15.736
2.9590	15.700
2.9573	15.670
2.9556	15.649
2.9539	15.639
2.9523	15.634
2.9506	15.628
2.9489	15.624
2.9472	15.627
2.9455	15.635
2.9439	15.646
2.9422	15.656
2.9405	15.662
2.9389	15.665
2.9372	15.663
2.9355	15.660
2.9339	15.660
2.9322	15.667
2.9306	15.678
2.9289	15.686
2.9272	15.697
2.9256	15.716
2.9239	15.740
2.9223	15.769
2.9206	15.801
2.9190	15.837
2.9174	15.870
2.9157	15.894
2.9141	15.917
2.9124	15.943
2.9108	15.967
2.9092	15.992
2.9075	16.018
2.9059	16.053
2.9043	16.094
2.9027	16.139
2.9010	16.188
2.8994	16.232
2.8978	16.270
2.8962	16.302
2.8946	16.331
2.8929	16.367
2.8913	16.413
2.8897	16.467
2.8881	16.520
2.8865	16.569
2.8849	16.620
2.8833	16.674
2.8817	16.729
2.8801	16.793
2.8785	16.863
2.8769	16.934
2.8753	17.000
2.8737	17.064
2.8721	17.131
2.8705	17.200
2.8689	17.268
2.8673	17.340
2.8658	17.412
2.8642	17.482
2.8626	17.552
2.8610	17.628
2.8594	17.710
2.8579	17.793
2.8563	17.875
2.8547	17.955
2.8531	18.038
2.8516	18.122
2.8500	18.211
2.8484	18.305
2.8469	18.403
2.8453	18.499
2.8437	18.587
2.8422	18.667
2.8406	18.743
2.8391	18.819
2.8375	18.896
2.8360	18.979
2.8344	19.067
2.8329	19.161
2.8313	19.259
2.8298	19.353
2.8282	19.442
2.8267	19.525
2.8252	19.604
2.8236	19.682
2.8221	19.762
2.8205	19.850
2.8190	19.944
2.8175	20.039
2.8159	20.129
2.8144	20.213
2.8129	20.290
2.8114	20.365
2.8098	20.438
2.8083	20.504
2.8068	20.562
2.8053	20.613
2.8038	20.662
2.8022	20.712
2.8007	20.762
2.7992	20.813
2.7977	20.856
2.7962	20.879
2.7947	20.876
2.7932	20.859
2.7917	20.849
2.7902	20.860
2.7887	20.909
2.7872	21.006
2.7857	21.151
2.7842	21.333
2.7827	21.536
2.7812	21.756
2.7797	21.989
2.7782	22.226
2.7767	22.463
2.7752	22.704
2.7738	22.951
2.7723	23.211
2.7708	23.488
2.7693	23.794
2.7678	24.133
2.7664	24.512
2.7649	24.928
2.7634	25.367
2.7619	25.822
2.7605	26.295
2.7590	26.781
2.7575	27.288
2.7561	27.820
2.7546	28.390
2.7531	28.996
2.7517	29.619
2.7502	30.251
2.7488	30.884
2.7473	31.500
2.7458	32.099
2.7444	32.695
2.7429	33.307
2.7415	33.954
2.7400	34.653
2.7386	35.413
2.7371	36.218
2.7357	37.044
2.7343	37.878
2.7328	38.702
2.7314	39.501
2.7299	40.272
2.7285	41.005
2.7271	41.696
2.7256	42.353
2.7242	43.001
2.7228	43.674
2.7213	44.389
2.7199	45.161
2.7185	45.977
2.7171	46.791
2.7156	47.569
2.7142	48.301
2.7128	48.998
2.7114	49.681
2.7100	50.378
2.7085	51.093
2.7071	51.803
2.7057	52.470
2.7043	53.073
2.7029	53.607
2.7015	54.066
2.7001	54.467
2.6987	54.828
2.6973	55.161
2.6959	55.482
2.6945	55.811
2.6931	56.165
2.6917	56.542
2.6903	56.915
2.6889	57.272
2.6875	57.597
2.6861	57.888
2.6847	58.138
2.6833	58.350
2.6819	58.533
2.6805	58.710
2.6791	58.892
2.6778	59.075
2.6764	59.266
2.6750	59.473
2.6736	59.672
2.6722	59.839
2.6709	59.994
2.6695	60.200
2.6681	60.465
2.6667	60.763
2.6654	61.102
2.6640	61.471
2.6626	61.817
2.6613	62.094
2.6599	62.307
2.6585	62.476
2.6572	62.599
2.6558	62.684
2.6545	62.772
2.6531	62.873
2.6517	62.985
2.6504	63.100
2.6490	63.212
2.6477	63.310
2.6463	63.394
2.6450	63.475
2.6436	63.563
2.6423	63.650
2.6409	63.740
2.6396	63.832
2.6382	63.900
2.6369	63.928
2.6356	63.922
2.6342	63.886
2.6329	63.833
2.6315	63.785
2.6302	63.787
2.6289	63.863
2.6275	63.974
2.6262	64.100
2.6249	64.217
2.6236	64.274
2.6222	64.265
2.6209	64.211
2.6196	64.177
2.6183	64.197
2.6169	64.258
2.6156	64.375
2.6143	64.518
2.6130	64.625
2.6117	64.667
2.6103	64.641
2.6090	64.571
2.6077	64.484
2.6064	64.415
2.6051	64.424
2.6038	64.528
2.6025	64.662
2.6012	64.748
2.5999	64.741
2.5986	64.629
2.5973	64.448
2.5960	64.275
2.5947	64.206
2.5934	64.295
2.5921	64.469
2.5908	64.631
2.5895	64.729
2.5882	64.737
2.5869	64.678
2.5856	64.604
2.5843	64.562
2.5830	64.588
2.5817	64.655
2.5805	64.715
2.5792	64.750
2.5779	64.746
2.5766	64.707
2.5753	64.651
2.5741	64.587
2.5728	64.544
2.5715	64.533
2.5702	64.534
2.5690	64.537
2.5677	64.521
2.5664	64.469
2.5651	64.387
2.5639	64.294
2.5626	64.220
2.5613	64.184
2.5601	64.181
2.5588	64.189
2.5575	64.175
2.5563	64.114
2.5550	64.002
2.5538	63.852
2.5525	63.686
2.5513	63.527
2.5500	63.383
2.5487	63.244
2.5475	63.103
2.5462	62.951
2.5450	62.783
2.5437	62.599
2.5425	62.408
2.5413	62.220
2.5400	62.041
2.5388	61.872
2.5375	61.715
2.5363	61.571
2.5350	61.443
2.5338	61.331
2.5326	61.233
2.5313	61.151
2.5301	61.089
2.5289	61.043
2.5276	61.009
2.5264	60.981
2.5252	60.959
2.5239	60.942
2.5227	60.929
2.5215	60.924
2.5202	60.939
2.5190	60.975
2.5178	61.025
2.5166	61.078
2.5154	61.131
2.5141	61.181
2.5129	61.227
2.5117	61.271
2.5105	61.321
2.5093	61.382
2.5081	61.448
2.5068	61.517
2.5056	61.585
2.5044	61.652
2.5032	61.719
2.5020	61.788
2.5008	61.861
2.4996	61.942
2.4984	62.030
2.4972	62.121
2.4960	62.211
2.4948	62.300
2.4936	62.390
2.4924	62.485
2.4912	62.584
2.4900	62.688
2.4888	62.796
2.4876	62.901
2.4864	62.996
2.4852	63.080
2.4840	63.158
2.4828	63.235
2.4816	63.311
2.4805	63.388
2.4793	63.463
2.4781	63.533
2.4769	63.593
2.4757	63.646
2.4745	63.700
2.4734	63.760
2.4722	63.831
2.4710	63.913
2.4698	64.000
2.4686	64.087
2.4675	64.167
2.4663	64.238
2.4651	64.305
2.4640	64.372
2.4628	64.443
2.4616	64.522
2.4604	64.609
2.4593	64.704
2.4581	64.806
2.4569	64.907
2.4558	65.005
2.4546	65.100
2.4535	65.192
2.4523	65.289
2.4511	65.398
2.4500	65.520
2.4488	65.647
2.4477	65.769
2.4465	65.881
2.4454	65.982
2.4442	66.071
2.4431	66.157
2.4419	66.249
2.4408	66.345
2.4396	66.444
2.4385	66.541
2.4373	66.633
2.4362	66.720
2.4350	66.800
2.4339	66.873
2.4327	66.941
2.4316	67.011
2.4305	67.087
2.4293	67.164
2.4282	67.241
2.4270	67.323
2.4259	67.403
2.4248	67.477
2.4236	67.547
2.4225	67.613
2.4214	67.675
2.4202	67.729
2.4191	67.777
2.4180	67.825
2.4169	67.871
2.4157	67.915
2.4146	67.962
2.4135	68.015
2.4124	68.068
2.4112	68.118
2.4101	68.162
2.4090	68.202
2.4079	68.234
2.4068	68.258
2.4056	68.285
2.4045	68.322
2.4034	68.363
2.4023	68.408
2.4012	68.457
2.4001	68.505
2.3990	68.547
2.3979	68.584
2.3967	68.619
2.3956	68.656
2.3945	68.691
2.3934	68.727
2.3923	68.763
2.3912	68.796
2.3901	68.826
2.3890	68.851
2.3879	68.868
2.3868	68.879
2.3857	68.891
2.3846	68.906
2.3835	68.921
2.3824	68.939
2.3813	68.964
2.3802	68.988
2.3791	69.009
2.3781	69.029
2.3770	69.053
2.3759	69.076
2.3748	69.088
2.3737	69.091
2.3726	69.084
2.3715	69.068
2.3704	69.048
2.3694	69.029
2.3683	69.017
2.3672	69.008
2.3661	68.996
2.3650	68.980
2.3640	68.961
2.3629	68.939
2.3618	68.917
2.3607	68.891
2.3597	68.857
2.3586	68.811
2.3575	68.749
2.3564	68.672
2.3554	68.587
2.3543	68.499
2.3532	68.414
2.3522	68.330
2.3511	68.246
2.3500	68.162
2.3490	68.076
2.3479	67.989
2.3468	67.903
2.3458	67.822
2.3447	67.747
2.3436	67.676
2.3426	67.606
2.3415	67.537
2.3405	67.467
2.3394	67.395
2.3384	67.326
2.3373	67.265
2.3363	67.211
2.3352	67.163
2.3342	67.121
2.3331	67.084
2.3321	67.053
2.3310	67.032
2.3300	67.018
2.3289	67.004
2.3279	66.987
2.3268	66.968
2.3258	66.950
2.3247	66.934
2.3237	66.932
2.3226	66.950
2.3216	66.977
2.3206	67.005
2.3195	67.034
2.3185	67.063
2.3175	67.082
2.3164	67.092
2.3154	67.104
2.3144	67.119
2.3133	67.130
2.3123	67.142
2.3113	67.162
2.3102	67.188
2.3092	67.213
2.3082	67.238
2.3071	67.265
2.3061	67.293
2.3051	67.317
2.3041	67.344
2.3030	67.375
2.3020	67.408
2.3010	67.439
2.3000	67.466
2.2990	67.486
2.2979	67.502
2.2969	67.516
2.2959	67.535
2.2949	67.564
2.2939	67.601
2.2929	67.640
2.2918	67.678
2.2908	67.709
2.2898	67.733
2.2888	67.752
2.2878	67.773
2.2868	67.799
2.2858	67.829
2.2848	67.860
2.2838	67.887
2.2828	67.910
2.2818	67.931
2.2808	67.954
2.2798	67.981
2.2787	68.009
2.2777	68.039
2.2767	68.063
2.2757	68.079
2.2747	68.097
2.2738	68.122
2.2728	68.149
2.2718	68.176
2.2708	68.201
2.2698	68.224
2.2688	68.240
2.2678	68.256
2.2668	68.284
2.2658	68.319
2.2648	68.357
2.2638	68.396
2.2628	68.433
2.2618	68.468
2.2609	68.501
2.2599	68.537
2.2589	68.575
2.2579	68.614
2.2569	68.658
2.2559	68.703
2.2550	68.743
2.2540	68.780
2.2530	68.815
2.2520	68.844
2.2510	68.869
2.2501	68.897
2.2491	68.934
2.2481	68.972
2.2471	69.013
2.2462	69.055
2.2452	69.090
2.2442	69.115
2.2433	69.134
2.2423	69.150
2.2413	69.162
2.2403	69.173
2.2394	69.188
2.2384	69.206
2.2374	69.223
2.2365	69.241
2.2355	69.261
2.2345	69.279
2.2336	69.297
2.2326	69.322
2.2317	69.354
2.2307	69.388
2.2297	69.422
2.2288	69.449
2.2278	69.461
2.2269	69.461
2.2259	69.459
2.2250	69.460
2.2240	69.464
2.2231	69.474
2.2221	69.490
2.2211	69.502
2.2202	69.507
2.2192	69.512
2.2183	69.523
2.2173	69.540
2.2164	69.562
2.2155	69.589
2.2145	69.611
2.2136	69.623
2.2126	69.629
2.2117	69.636
2.2107	69.651
2.2098	69.671
2.2088	69.698
2.2079	69.727
2.2070	69.754
2.2060	69.775
2.2051	69.792
2.2041	69.810
2.2032	69.822
2.2023	69.832
2.2013	69.845
2.2004	69.862
2.1995	69.881
2.1985	69.900
2.1976	69.914
2.1967	69.921
2.1957	69.923
2.1948	69.932
2.1939	69.955
2.1930	69.990
2.1920	70.031
2.1911	70.077
2.1902	70.117
2.1893	70.146
2.1883	70.172
2.1874	70.200
2.1865	70.232
2.1856	70.264
2.1846	70.297
2.1837	70.335
2.1828	70.371
2.1819	70.402
2.1810	70.431
2.1800	70.460
2.1791	70.489
2.1782	70.519
2.1773	70.550
2.1764	70.581
2.1755	70.607
2.1746	70.632
2.1736	70.658
2.1727	70.687
2.1718	70.724
2.1709	70.774
2.1700	70.827
2.1691	70.868
2.1682	70.888
2.1673	70.891
2.1664	70.880
2.1655	70.864
2.1646	70.859
2.1637	70.875
2.1628	70.906
2.1619	70.936
2.1610	70.962
2.1601	70.985
2.1592	71.003
2.1583	71.017
2.1574	71.027
2.1565	71.032
2.1556	71.027
2.1547	71.010
2.1538	70.990
2.1529	70.970
2.1520	70.954
2.1511	70.951
2.1502	70.957
2.1493	70.968
2.1484	70.985
2.1475	71.011
2.1466	71.042
2.1458	71.072
2.1449	71.103
2.1440	71.135
2.1431	71.154
2.1422	71.154
2.1413	71.140
2.1404	71.123
2.1396	71.107
2.1387	71.095
2.1378	71.101
2.1369	71.125
2.1360	71.155
2.1352	71.185
2.1343	71.212
2.1334	71.231
2.1325	71.233
2.1316	71.215
2.1308	71.193
2.1299	71.170
2.1290	71.156
2.1281	71.156
2.1273	71.165
2.1264	71.181
2.1255	71.188
2.1247	71.185
2.1238	71.178
2.1229	71.172
2.1220	71.168
2.1212	71.166
2.1203	71.169
2.1194	71.181
2.1186	71.192
2.1177	71.202
2.1168	71.215
2.1160	71.232
2.1151	71.241
2.1143	71.245
2.1134	71.252
2.1125	71.260
2.1117	71.267
2.1108	71.275
2.1100	71.284
2.1091	71.291
2.1082	71.292
2.1074	71.292
2.1065	71.290
2.1057	71.282
2.1048	71.274
2.1040	71.264
2.1031	71.250
2.1023	71.240
2.1014	71.232
2.1005	71.228
2.0997	71.225
2.0988	71.225
2.0980	71.225
2.0971	71.228
2.0963	71.235
2.0955	71.247
2.0946	71.255
2.0938	71.256
2.0929	71.252
2.0921	71.243
2.0912	71.231
2.0904	71.222
2.0895	71.224
2.0887	71.233
2.0879	71.245
2.0870	71.256
2.0862	71.267
2.0853	71.274
2.0845	71.276
2.0837	71.277
2.0828	71.290
2.0820	71.303
2.0812	71.334
2.0803	71.388
2.0795	71.405
2.0760	71.405
2.0720	71.728
2.0680	71.923
2.0640	71.356
2.0600	70.999
2.0560	71.756
2.0520	71.941
2.0480	71.682
2.0440	71.682
2.0400	71.177
2.0360	70.837
2.0320	70.560
2.0280	70.400
2.0240	70.058
2.0200	70.337
2.0160	70.062
2.0120	69.971
2.0080	69.477
2.0040	69.354
2.0000	69.201
1.9960	68.645
1.9920	68.442
1.9880	68.654
1.9840	68.684
1.9800	68.593
1.9760	68.442
1.9720	68.292
1.9680	67.961
1.9640	68.021
1.9600	68.022
1.9560	67.723
1.9520	68.170
1.9480	67.989
1.9440	67.567
1.9400	67.114
1.9360	66.629
1.9320	66.378
1.9280	66.734
1.9240	67.029
1.9200	66.503
1.9160	66.503
1.9120	66.324
1.9080	66.623
1.9040	67.149
1.9000	68.074
1.8960	69.179
1.8920	69.850
1.8880	69.554
1.8840	68.978
1.8800	68.738
1.8760	68.857
1.8720	68.650
1.8680	68.472
1.8640	69.347
1.8600	70.630
1.8560	71.529
1.8520	71.950
1.8480	71.616
1.8440	70.152
1.8400	69.393
1.8360	69.555
1.8320	70.204
1.8280	71.079
1.8240	71.206
1.8200	70.918
1.8160	70.462
1.8120	70.128
1.8080	70.160
1.8040	70.402
1.8000	70.248
1.7960	70.160
1.7920	70.011
1.7880	69.537
1.7840	69.539
1.7800	69.659
1.7760	69.630
1.7720	69.750
1.7680	69.661
1.7640	69.570
1.7600	69.511
1.7560	69.539
1.7520	69.715
1.7480	69.624
1.7440	69.860
1.7400	70.160
1.7360	69.863
1.7320	69.983
1.7280	69.898
1.7240	70.136
1.7200	70.435
1.7160	70.467
1.7120	70.523
1.7080	70.160
1.7040	70.369
1.7000	70.100
1.6960	70.040
1.6920	70.100
1.6880	70.188
1.6840	70.110
1.6800	70.364
1.6760	70.304
1.6720	70.068
1.6680	69.948
1.6640	69.990
1.6600	70.114
1.6560	69.814
1.6520	69.874
1.6480	69.783
1.6440	69.783
1.6400	69.994
1.6360	69.786
1.6320	69.814
1.6280	70.263
1.6240	69.905
1.6200	69.814
1.6160	69.783
1.6120	69.902
1.6080	69.990
1.6040	70.254
1.6000	69.695
1.5960	69.519
1.5920	70.025
1.5880	70.323
1.5840	70.351
1.5800	70.114
1.5760	70.202
1.5720	69.934
1.5680	69.845
1.5640	69.994
1.5600	69.483
1.5560	69.607
1.5520	69.630
1.5480	69.934
1.5440	69.718
1.5400	69.569
1.5360	69.128
1.5320	69.012
1.5280	69.216
1.5240	69.069
1.5200	69.275
1.5160	69.747
1.5120	69.597
1.5080	69.361
1.5040	68.806
1.5000	68.485
1.4960	68.778
1.4920	69.132
1.4880	69.880
1.4840	69.142
1.4800	69.189
1.4760	69.189
1.4720	69.042
1.4680	68.924
1.4640	68.847
1.4600	69.012
1.4560	68.437
1.4520	68.145
1.4480	68.203
1.4440	67.709
1.4400	67.169
1.4360	67.082
1.4320	67.272
1.4280	67.512
1.4240	67.687
1.4200	67.717
1.4160	67.359
1.4120	66.896
1.4080	66.403
1.4040	66.860
1.4000	67.063
1.3960	67.936
1.3920	68.379
1.3880	68.737
1.3840	68.767
1.3800	68.588
1.3760	68.678
1.3720	70.038
1.3680	70.669
1.3640	69.759
1.3600	68.191
1.3560	68.307
1.3520	69.909
1.3480	70.548
1.3440	70.662
1.3400	69.525
1.3360	68.793
1.3320	67.898
1.3280	67.812
1.3240	67.923
1.3200	68.005
1.3160	68.032
1.3120	67.791
1.3080	67.707
1.3040	67.506
1.3000	67.392
1.2960	67.392
1.2920	67.475
1.2880	67.326
1.2840	66.889
1.2800	66.852
1.2760	66.872
1.2720	67.422
1.2680	67.418
1.2640	67.645
1.2600	67.472
1.2560	67.906
1.2520	68.033
1.2480	68.120
1.2440	68.120
1.2400	68.509
1.2360	68.628
1.2320	69.028
1.2280	68.367
1.2240	68.111
1.2200	68.080
1.2160	67.978
1.2120	68.039
1.2080	68.484
1.2040	68.664
1.2000	67.813
1.1960	67.036
1.1920	66.751
1.1880	66.727
1.1840	66.558
1.1800	66.445
1.1760	66.509
1.1720	66.484
1.1680	66.188
1.1640	65.816
1.1600	65.793
1.1560	65.379
1.1520	65.052
1.1480	65.183
1.1440	65.524
1.1400	66.324
1.1360	66.736
1.1320	66.105
1.1280	66.265
1.1240	66.072
1.1200	66.322
1.1160	66.313
1.1120	65.660
1.1080	65.871
1.1040	65.992
1.1000	65.693
1.0960	66.016
1.0920	65.884
1.0880	65.847
1.0840	65.613
1.0800	65.446
1.0760	65.435
1.0720	65.358
1.0680	65.491
1.0640	65.036
1.0600	64.793
1.0560	64.616
1.0520	64.517
1.0480	64.804
1.0440	64.507
1.0400	64.330
1.0360	64.616
1.0320	64.825
1.0280	64.252
1.0240	64.572
1.0200	64.460
1.0160	64.569
1.0120	64.580
1.0080	63.987
1.0040	63.859
1.0000	63.453
0.99600	63.987
0.99200	64.682
0.98800	64.218
0.98400	63.879
0.98000	63.152
0.97600	63.418
0.97200	63.384
0.96800	63.349
0.96400	63.384
0.96000	63.437
0.95600	63.456
0.95200	63.427
0.94800	63.090
0.94400	63.357
0.94000	63.250
0.93600	63.427
0.93200	63.250
0.92800	63.266
0.92400	62.984
0.92000	63.090
0.91600	62.967
0.91200	62.973
0.90800	62.867
0.90400	62.868
0.90000	62.922
0.89600	62.903
0.89200	62.692
0.88800	62.516
0.88400	62.636
0.88000	62.194
0.87600	62.407
0.87200	62.460
0.86800	62.638
0.86400	62.942
0.86000	62.987
0.85600	62.754
0.85200	62.379
0.84800	62.496
0.84400	62.575
0.84000	62.514
0.83600	62.791
0.83200	62.746
0.82800	62.836
0.82400	62.665
0.82000	62.806
0.81600	62.734
0.81200	62.823
0.80800	62.531
0.80400	62.424
0.80000	62.266
0.79900	62.266
0.79800	62.266
0.79700	62.946
0.79600	62.723
0.79500	62.748
0.79400	62.497
0.79300	62.346
0.79200	62.480
0.79100	62.288
0.79000	62.655
0.78900	62.941
0.78800	62.676
0.78700	62.576
0.78600	62.635
0.78500	62.635
0.78400	62.731
0.78300	62.790
0.78200	62.576
0.78100	62.359
0.78000	62.922
0.77900	62.884
0.77800	62.500
0.77700	62.576
0.77600	62.170
0.77500	62.235
0.77400	62.204
0.77300	62.383
0.77200	62.728
0.77100	62.441
0.77000	62.441
0.76900	62.438
0.76800	62.070
0.76700	62.342
0.76600	62.722
0.76500	62.342
0.76400	62.207
0.76300	61.955
0.76200	61.916
0.76100	62.139
0.76000	62.090
0.75900	62.303
0.75800	62.072
0.75700	61.936
0.75600	61.916
0.75500	61.858
0.75400	61.916
0.75300	61.975
0.75200	61.858
0.75100	62.090
0.75000	61.762
0.74900	61.762
0.74800	61.492
0.74700	61.775
0.74600	61.665
0.74500	61.659
0.74400	61.678
0.74300	61.562
0.74200	61.388
0.74100	61.950
0.74000	61.912
0.73900	61.465
0.73800	61.369
0.73700	61.426
0.73600	61.659
0.73500	61.465
0.73400	61.239
0.73300	61.388
0.73200	61.776
0.73100	61.659
0.73000	61.252
0.72900	61.620
0.72800	61.470
0.72700	61.446
0.72600	60.664
0.72500	61.446
0.72400	61.155
0.72300	60.714
0.72200	60.810
0.72100	61.000
0.72000	61.000
0.71900	60.613
0.71800	60.842
0.71700	60.882
0.71600	60.425
0.71500	60.688
0.71400	61.093
0.71300	61.034
0.71200	60.995
0.71100	60.442
0.71000	60.442
0.70900	60.119
0.70800	59.854
0.70700	60.379
0.70600	60.451
0.70500	60.681
0.70400	60.681
0.70300	60.394
0.70200	60.371
0.70100	60.311
0.70000	60.448
0.69900	60.434
0.69800	61.035
0.69700	60.872
0.69600	60.434
0.69500	60.457
0.69400	60.339
0.69300	59.787
0.69200	59.986
0.69100	60.462
0.69000	60.003
0.68900	59.895
0.68800	59.820
0.68700	59.962
0.68600	59.862
0.68500	59.837
0.68400	59.820
0.68300	60.038
0.68200	60.013
0.68100	59.896
0.68000	59.220
0.67900	58.747
0.67800	58.947
0.67700	59.728
0.67600	59.410
0.67500	59.135
0.67400	59.193
0.67300	59.035
0.67200	58.647
0.67100	59.093
0.67000	59.035
0.66900	58.962
0.66800	59.225
0.66700	59.038
0.66600	58.922
0.66500	58.834
0.66400	58.619
0.66300	58.849
0.66200	59.182
0.66100	59.023
0.66000	58.547
0.65900	58.518
0.65800	58.693
0.65700	58.867
0.65600	58.548
0.65500	58.116
0.65400	58.548
0.65300	58.693
0.65200	58.257
0.65100	58.315
0.65000	58.142
0.64900	58.015
0.64800	57.713
0.64700	57.884
0.64600	57.840
0.64500	57.581
0.64400	57.410
0.64300	57.410
0.64200	57.221
0.64100	57.334
0.64000	57.435
0.63900	57.334
0.63800	57.333
0.63700	57.221
0.63600	57.063
0.63500	56.906
0.63400	57.164
0.63300	57.063
0.63200	57.120
0.63100	56.503
0.63000	56.433
0.62900	56.332
0.62800	56.332
0.62700	56.266
0.62600	56.064
0.62500	56.165
0.62400	56.018
0.62300	56.342
0.62200	56.240
0.62100	56.083
0.62000	55.936
0.61900	56.139
0.61800	55.991
0.61700	55.779
0.61600	55.622
0.61500	55.512
0.61400	55.411
0.61300	55.301
0.61200	54.952
0.61100	54.851
0.61000	54.952
0.60900	54.851
0.60800	54.851
0.60700	54.803
0.60600	54.709
0.60500	54.662
0.60400	54.560
0.60300	54.260
0.60200	54.478
0.60100	54.491
0.60000	54.226
0.59900	54.274
0.59800	54.081
0.59700	54.190
0.59600	54.305
0.59500	54.469
0.59400	53.946
0.59300	53.897
0.59200	53.686
0.59100	53.892
0.59000	53.833
0.58900	53.843
0.58800	53.691
0.58700	53.376
0.58600	53.067
0.58500	53.010
0.58400	53.170
0.58300	53.331
0.58200	52.598
0.58100	52.864
0.58000	52.860
0.57900	52.967
0.57800	52.860
0.57700	52.654
0.57600	52.860
0.57500	53.170
0.57400	52.904
0.57300	52.689
0.57200	52.273
0.57100	52.275
0.57000	52.074
0.56900	52.225
0.56800	52.174
0.56700	51.971
0.56600	51.718
0.56500	51.210
0.56400	51.007
0.56300	50.754
0.56200	50.551
0.56100	50.550
0.56000	50.293
0.55900	48.412
0.55800	50.428
0.55700	50.189
0.55600	50.001
0.55500	49.716
0.55400	49.426
0.55300	49.472
0.55200	49.657
0.55100	49.454
0.55000	49.638
0.54900	49.622
0.54800	49.523
0.54700	49.387
0.54600	49.574
0.54500	49.194
0.54400	48.656
0.54300	48.790
0.54200	48.639
0.54100	49.121
0.54000	48.395
0.53900	48.499
0.53800	48.389
0.53700	48.566
0.53600	48.378
0.53500	48.477
0.53400	48.619
0.53300	48.332
0.53200	48.145
0.53100	47.894
0.53000	48.132
0.52900	48.080
0.52800	47.828
0.52700	47.591
0.52600	47.552
0.52500	47.438
0.52400	47.369
0.52300	46.913
0.52200	46.671
0.52100	46.662
0.52000	46.589
0.51900	46.515
0.51800	46.014
0.51700	45.476
0.51600	46.092
0.51500	45.782
0.51400	45.314
0.51300	45.782
0.51200	45.651
0.51100	45.487
0.51000	45.354
0.50900	45.540
0.50800	44.996
0.50700	44.700
0.50600	44.348
0.50500	44.404
0.50400	44.234
0.50300	44.176
0.50200	44.499
0.50100	44.206
0.50000	44.149
0.49900	44.036
0.49800	43.770
0.49700	43.739
0.49600	43.278
0.49500	43.500
0.49400	42.957
0.49300	42.538
0.49200	42.719
0.49100	42.784
0.49000	42.907
0.48900	42.507
0.48800	42.466
0.48700	42.386
0.48600	42.133
0.48500	41.937
0.48400	41.935
0.48300	41.701
0.48200	41.879
0.48100	41.720
0.48000	41.602
0.47900	41.289
0.47800	41.250
0.47700	40.757
0.47600	40.932
0.47500	40.696
0.47400	40.658
0.47300	40.248
0.47200	40.347
0.47100	40.325
0.47000	40.250
0.46900	39.943
0.46800	39.845
0.46700	39.722
0.46600	39.354
0.46500	39.243
0.46400	39.147
0.46300	39.277
0.46200	38.937
0.46100	38.678
0.46000	38.608
0.45900	38.740
0.45800	38.796
0.45700	38.432
0.45600	38.345
0.45500	37.964
0.45400	38.206
0.45300	37.954
0.45200	37.719
0.45100	37.796
0.45000	37.459
0.44900	37.424
0.44800	37.526
0.44700	37.667
0.44600	36.978
0.44500	36.498
0.44400	36.289
0.44300	36.293
0.44200	36.499
0.44100	36.182
0.44000	36.007
0.43900	36.007
0.43800	35.899
0.43700	35.965
0.43600	35.181
0.43500	34.971
0.43400	35.036
0.43300	34.998
0.43200	34.826
0.43100	34.622
0.43000	34.372
0.42900	34.461
0.42800	33.821
0.42700	33.944
0.42600	33.777
0.42500	33.366
0.42400	33.350
0.42300	33.299
0.42200	32.835
0.42100	32.743
0.42000	32.855
0.41900	32.535
0.41800	32.649
0.41700	32.545
0.41600	32.234
0.41500	32.130
0.41400	32.155
0.41300	31.589
0.41200	31.567
0.41100	31.494
0.41000	31.326
0.40900	30.855
0.40800	30.861
0.40700	30.943
0.40600	30.527
0.40500	30.447
0.40400	30.261
0.40300	30.057
0.40200	30.035
0.40100	29.797
0.40000	29.798
0.0000	
