Name: Oolitic Limestone 
Type:  Rocks
Class:  Sedimentary
Subclass: Limestone
Particle Size:  0 - 75 Micrometers
Sample No.:  limestone.4
Owner:  JHU
Wavelength Range:  All
Origin:  Sample No. 354,  The Hunt and Salisbury Collection at the U.S. 
Geological Survey, Denver, Co.
Description: Ooids (~ 1 mm diameter) with good laminar structure 
and occasionally with cores of recrystallized silica or carbonate are 
set in a micritic (microcrystalline calcite) groundmass. Some areas of 
this groundmass also contain recrystallized silica and carbonate. In 
addition there has been some compaction of the sample. While still 
soft, most ooids are slightly deformed with continuous boundaries.
Measurement:  Directional (10 Degree) Hemispherical Reflectance
First Column:  X
Second Column:  Y  
X Units:  Wavelength (micrometers)
Y Units:  Reflectance (percent)
First X Value: 14.9831
Last X Value:  0.4
Number of X Values:  2868
Additional Information:  None 

14.983	23.280
14.940	23.942
14.897	24.282
14.854	24.505
14.812	24.690
14.770	24.613
14.728	24.542
14.686	24.502
14.645	24.456
14.603	24.319
14.562	23.912
14.521	23.317
14.481	22.554
14.441	21.646
14.400	20.679
14.361	19.537
14.321	18.020
14.281	16.073
14.242	13.694
14.203	10.979
14.164	8.2248
14.126	5.7101
14.087	3.5998
14.049	2.1086
14.011	1.4602
13.973	1.9158
13.936	3.5520
13.899	6.1622
13.861	9.4047
13.824	12.797
13.788	15.868
13.751	18.379
13.715	20.336
13.679	21.916
13.643	23.235
13.607	24.283
13.571	25.047
13.536	25.572
13.500	25.925
13.465	26.129
13.430	26.233
13.396	26.294
13.361	26.301
13.327	26.217
13.293	26.040
13.259	25.774
13.225	25.422
13.191	25.009
13.158	24.571
13.124	24.138
13.091	23.709
13.058	23.279
13.026	22.870
12.993	22.499
12.960	22.185
12.928	21.943
12.896	21.771
12.864	21.658
12.832	21.581
12.800	21.535
12.769	21.522
12.737	21.580
12.706	21.730
12.675	21.976
12.644	22.282
12.614	22.580
12.583	22.843
12.552	23.101
12.522	23.369
12.492	23.688
12.462	24.080
12.432	24.527
12.402	24.953
12.373	25.303
12.343	25.579
12.314	25.843
12.285	26.121
12.256	26.429
12.227	26.761
12.198	27.079
12.169	27.326
12.141	27.511
12.113	27.633
12.084	27.698
12.056	27.687
12.028	27.596
12.000	27.423
11.973	27.167
11.945	26.829
11.918	26.178
11.890	24.254
11.863	20.779
11.836	17.186
11.809	14.712
11.782	13.720
11.755	14.153
11.729	15.622
11.702	17.157
11.676	17.313
11.650	15.833
11.624	13.899
11.598	12.063
11.572	10.336
11.546	8.8103
11.520	7.6034
11.495	6.7907
11.469	6.4395
11.444	6.5311
11.419	6.8921
11.394	7.2719
11.369	7.7505
11.344	8.8898
11.319	10.900
11.294	13.393
11.270	15.953
11.245	18.225
11.221	19.853
11.197	20.614
11.173	20.754
11.149	20.882
11.125	21.182
11.101	21.414
11.077	21.513
11.054	21.523
11.030	21.506
11.007	21.492
10.983	21.487
10.960	21.494
10.937	21.517
10.914	21.504
10.891	21.427
10.868	21.280
10.846	21.063
10.823	20.766
10.800	20.412
10.778	20.014
10.755	19.605
10.733	19.219
10.711	18.903
10.689	18.685
10.667	18.577
10.645	18.560
10.623	18.576
10.602	18.577
10.580	18.572
10.558	18.584
10.537	18.633
10.516	18.740
10.494	18.919
10.473	19.145
10.452	19.337
10.431	19.443
10.410	19.454
10.389	19.370
10.368	19.219
10.348	19.021
10.327	18.783
10.306	18.495
10.286	18.136
10.266	17.715
10.245	17.276
10.225	16.889
10.205	16.601
10.185	16.405
10.165	16.251
10.145	16.074
10.125	15.844
10.106	15.568
10.086	15.274
10.066	15.001
10.047	14.769
10.027	14.581
10.008	14.422
9.9887	14.277
9.9695	14.141
9.9504	14.004
9.9313	13.853
9.9123	13.702
9.8934	13.582
9.8746	13.519
9.8558	13.517
9.8371	13.571
9.8185	13.657
9.7999	13.744
9.7814	13.808
9.7630	13.872
9.7447	13.994
9.7264	14.200
9.7082	14.480
9.6900	14.828
9.6719	15.197
9.6539	15.518
9.6360	15.770
9.6181	15.961
9.6003	16.136
9.5825	16.330
9.5649	16.563
9.5472	16.832
9.5297	17.101
9.5122	17.336
9.4948	17.535
9.4774	17.690
9.4601	17.812
9.4429	17.906
9.4257	17.941
9.4086	17.916
9.3916	17.882
9.3746	17.897
9.3577	17.999
9.3408	18.198
9.3240	18.510
9.3073	18.846
9.2906	18.966
9.2740	18.773
9.2574	18.383
9.2409	17.900
9.2245	17.543
9.2081	17.545
9.1918	17.965
9.1755	18.654
9.1593	19.334
9.1431	19.866
9.1270	20.221
9.1110	20.342
9.0950	20.355
9.0791	20.392
9.0632	20.439
9.0474	20.463
9.0316	20.471
9.0159	20.486
9.0003	20.505
8.9847	20.517
8.9691	20.539
8.9536	20.590
8.9382	20.646
8.9228	20.688
8.9075	20.724
8.8922	20.751
8.8770	20.756
8.8618	20.739
8.8467	20.699
8.8316	20.620
8.8166	20.484
8.8016	20.279
8.7867	20.002
8.7718	19.643
8.7570	19.205
8.7422	18.702
8.7275	18.158
8.7129	17.579
8.6982	16.975
8.6837	16.340
8.6692	15.647
8.6547	14.873
8.6403	14.075
8.6259	13.340
8.6116	12.750
8.5973	12.361
8.5830	12.185
8.5688	12.179
8.5547	12.241
8.5406	12.263
8.5266	12.212
8.5126	12.109
8.4986	11.998
8.4847	11.935
8.4708	11.958
8.4570	12.059
8.4432	12.224
8.4295	12.429
8.4158	12.648
8.4022	12.892
8.3886	13.182
8.3750	13.512
8.3615	13.843
8.3481	14.141
8.3347	14.396
8.3213	14.598
8.3079	14.752
8.2946	14.888
8.2814	15.028
8.2682	15.172
8.2550	15.304
8.2419	15.418
8.2288	15.505
8.2158	15.542
8.2028	15.517
8.1898	15.433
8.1769	15.306
8.1640	15.167
8.1512	15.019
8.1384	14.864
8.1256	14.704
8.1129	14.517
8.1002	14.301
8.0876	14.080
8.0750	13.898
8.0624	13.804
8.0499	13.807
8.0374	13.881
8.0250	13.993
8.0126	14.097
8.0002	14.157
7.9879	14.141
7.9756	14.050
7.9634	13.889
7.9512	13.661
7.9390	13.387
7.9268	13.110
7.9147	12.880
7.9027	12.719
7.8906	12.634
7.8786	12.618
7.8667	12.616
7.8548	12.579
7.8429	12.486
7.8310	12.335
7.8192	12.143
7.8075	11.960
7.7957	11.816
7.7840	11.715
7.7723	11.639
7.7607	11.562
7.7491	11.462
7.7375	11.316
7.7260	11.123
7.7145	10.906
7.7031	10.654
7.6916	10.369
7.6802	10.068
7.6689	9.7608
7.6575	9.4549
7.6462	9.1572
7.6350	8.8884
7.6238	8.6637
7.6126	8.4690
7.6014	8.3113
7.5903	8.1941
7.5792	8.1081
7.5681	8.0470
7.5571	8.0008
7.5461	7.9684
7.5351	7.9392
7.5242	7.8914
7.5133	7.8287
7.5024	7.7479
7.4916	7.6494
7.4807	7.5468
7.4700	7.4410
7.4592	7.3347
7.4485	7.2286
7.4378	7.1270
7.4272	7.0363
7.4165	6.9489
7.4059	6.8643
7.3954	6.7807
7.3848	6.6886
7.3743	6.5868
7.3639	6.4712
7.3534	6.3438
7.3430	6.2077
7.3326	6.0646
7.3223	5.9287
7.3119	5.8010
7.3016	5.6855
7.2914	5.5884
7.2811	5.5126
7.2709	5.4593
7.2607	5.4273
7.2506	5.4167
7.2404	5.4262
7.2303	5.4430
7.2203	5.4704
7.2102	5.5126
7.2002	5.5720
7.1902	5.6556
7.1803	5.7672
7.1703	5.8920
7.1604	6.0113
7.1506	6.1364
7.1407	6.3107
7.1309	6.5442
7.1211	6.8324
7.1113	7.1589
7.1016	7.4753
7.0919	7.7304
7.0822	7.8961
7.0725	7.9897
7.0629	8.0389
7.0533	8.0572
7.0437	8.0574
7.0341	8.0484
7.0246	8.0295
7.0151	8.0096
7.0056	8.0006
6.9962	8.0020
6.9867	8.0020
6.9773	8.0013
6.9679	7.9963
6.9586	7.9975
6.9493	8.0053
6.9400	8.0226
6.9307	8.0584
6.9214	8.1124
6.9122	8.1889
6.9030	8.2867
6.8938	8.3973
6.8847	8.5126
6.8755	8.6123
6.8664	8.6937
6.8573	8.7619
6.8483	8.8209
6.8393	8.8844
6.8302	8.9538
6.8213	9.0272
6.8123	9.1124
6.8034	9.1922
6.7944	9.2671
6.7855	9.3514
6.7767	9.4440
6.7678	9.5432
6.7590	9.6394
6.7502	9.7329
6.7414	9.8354
6.7327	9.9399
6.7239	10.051
6.7152	10.178
6.7065	10.317
6.6979	10.462
6.6892	10.600
6.6806	10.731
6.6720	10.863
6.6634	11.002
6.6549	11.146
6.6464	11.299
6.6378	11.477
6.6294	11.681
6.6209	11.905
6.6124	12.149
6.6040	12.408
6.5956	12.683
6.5872	12.956
6.5789	13.222
6.5705	13.488
6.5622	13.740
6.5539	13.979
6.5456	14.204
6.5374	14.423
6.5292	14.635
6.5209	14.837
6.5128	15.033
6.5046	15.207
6.4964	15.365
6.4883	15.513
6.4802	15.634
6.4721	15.691
6.4640	15.615
6.4560	15.356
6.4480	14.871
6.4399	14.153
6.4320	13.289
6.4240	12.362
6.4160	11.442
6.4081	10.587
6.4002	9.8129
6.3923	9.1127
6.3844	8.4624
6.3766	7.8474
6.3687	7.2650
6.3609	6.6863
6.3531	6.0840
6.3454	5.4868
6.3376	4.9312
6.3299	4.4348
6.3221	4.0100
6.3144	3.6725
6.3068	3.4395
6.2991	3.2934
6.2914	3.1956
6.2838	3.1416
6.2762	3.1241
6.2686	3.1047
6.2611	3.0571
6.2535	2.9851
6.2460	2.9166
6.2385	2.8484
6.2310	2.7667
6.2235	2.6935
6.2160	2.6322
6.2086	2.5815
6.2011	2.5484
6.1937	2.5292
6.1863	2.5252
6.1790	2.5285
6.1716	2.5290
6.1643	2.5422
6.1570	2.5578
6.1496	2.5822
6.1424	2.6275
6.1351	2.6831
6.1278	2.7437
6.1206	2.8117
6.1134	2.8754
6.1062	2.9377
6.0990	2.9983
6.0918	3.0597
6.0847	3.1359
6.0776	3.2254
6.0704	3.3206
6.0633	3.4308
6.0563	3.5515
6.0492	3.6863
6.0421	3.8419
6.0351	4.0069
6.0281	4.1770
6.0211	4.3522
6.0141	4.5237
6.0071	4.6930
6.0002	4.8580
5.9932	5.0105
5.9863	5.1526
5.9794	5.2829
5.9725	5.4027
5.9657	5.5296
5.9588	5.6658
5.9520	5.8098
5.9451	5.9763
5.9383	6.1537
5.9315	6.3289
5.9247	6.5025
5.9180	6.6725
5.9112	6.8381
5.9045	6.9951
5.8978	7.1383
5.8911	7.2726
5.8844	7.3879
5.8777	7.4744
5.8711	7.5300
5.8644	7.5632
5.8578	7.5734
5.8512	7.5674
5.8446	7.5480
5.8380	7.5201
5.8314	7.4836
5.8249	7.4455
5.8184	7.4090
5.8118	7.3811
5.8053	7.3529
5.7988	7.3205
5.7923	7.2823
5.7859	7.2369
5.7794	7.1821
5.7730	7.1345
5.7666	7.1158
5.7602	7.1383
5.7538	7.2106
5.7474	7.3337
5.7410	7.5073
5.7347	7.7145
5.7283	7.9352
5.7220	8.1633
5.7157	8.4001
5.7094	8.6379
5.7031	8.8673
5.6969	9.1027
5.6906	9.3717
5.6844	9.6777
5.6782	10.024
5.6719	10.432
5.6657	10.899
5.6596	11.364
5.6534	11.753
5.6472	12.018
5.6411	12.115
5.6349	11.982
5.6288	11.576
5.6227	10.886
5.6166	9.9133
5.6106	8.6677
5.6045	7.1999
5.5984	5.6395
5.5924	4.1888
5.5864	3.0154
5.5804	2.1830
5.5744	1.6688
5.5684	1.4327
5.5624	1.4621
5.5564	1.8090
5.5505	2.5962
5.5445	3.9219
5.5386	5.7466
5.5327	7.8838
5.5268	10.080
5.5209	12.125
5.5151	13.915
5.5092	15.448
5.5033	16.794
5.4975	18.019
5.4917	19.167
5.4859	20.247
5.4801	21.270
5.4743	22.255
5.4685	23.210
5.4628	24.130
5.4570	25.025
5.4513	25.906
5.4455	26.776
5.4398	27.624
5.4341	28.460
5.4284	29.292
5.4228	30.102
5.4171	30.865
5.4114	31.576
5.4058	32.238
5.4002	32.855
5.3945	33.425
5.3889	33.966
5.3833	34.498
5.3778	35.013
5.3722	35.501
5.3666	35.970
5.3611	36.426
5.3555	36.877
5.3500	37.329
5.3445	37.792
5.3390	38.277
5.3335	38.778
5.3280	39.278
5.3225	39.775
5.3171	40.257
5.3116	40.717
5.3062	41.160
5.3008	41.581
5.2954	41.989
5.2900	42.378
5.2846	42.746
5.2792	43.115
5.2738	43.494
5.2684	43.871
5.2631	44.255
5.2578	44.648
5.2524	45.044
5.2471	45.428
5.2418	45.802
5.2365	46.172
5.2312	46.530
5.2260	46.863
5.2207	47.178
5.2154	47.479
5.2102	47.760
5.2050	48.016
5.1998	48.255
5.1945	48.476
5.1893	48.668
5.1842	48.825
5.1790	48.959
5.1738	49.084
5.1686	49.206
5.1635	49.334
5.1584	49.473
5.1532	49.613
5.1481	49.736
5.1430	49.843
5.1379	49.939
5.1328	50.023
5.1277	50.014
5.1227	49.682
5.1176	48.683
5.1126	46.999
5.1075	45.263
5.1025	44.192
5.0975	44.160
5.0925	45.209
5.0875	47.037
5.0825	49.017
5.0775	50.457
5.0726	51.120
5.0676	51.345
5.0627	51.435
5.0577	51.488
5.0528	51.528
5.0479	51.556
5.0430	51.568
5.0380	51.563
5.0332	51.553
5.0283	51.537
5.0234	51.518
5.0185	51.507
5.0137	51.506
5.0088	51.515
5.0040	51.528
4.9992	51.539
4.9944	51.559
4.9896	51.592
4.9848	51.638
4.9800	51.702
4.9752	51.775
4.9704	51.855
4.9657	51.937
4.9609	52.012
4.9562	52.076
4.9514	52.132
4.9467	52.180
4.9420	52.220
4.9373	52.249
4.9326	52.287
4.9279	52.339
4.9232	52.406
4.9186	52.488
4.9139	52.594
4.9092	52.721
4.9046	52.850
4.9000	52.971
4.8953	53.086
4.8907	53.188
4.8861	53.282
4.8815	53.376
4.8769	53.476
4.8723	53.575
4.8678	53.668
4.8632	53.758
4.8586	53.839
4.8541	53.910
4.8495	53.973
4.8450	54.028
4.8405	54.084
4.8360	54.137
4.8315	54.189
4.8270	54.234
4.8225	54.262
4.8180	54.274
4.8135	54.271
4.8090	54.254
4.8046	54.242
4.8001	54.233
4.7957	54.220
4.7913	54.189
4.7868	54.134
4.7824	54.051
4.7780	53.929
4.7736	53.751
4.7692	53.523
4.7648	53.239
4.7605	52.904
4.7561	52.524
4.7517	52.096
4.7474	51.612
4.7431	51.064
4.7387	50.424
4.7344	49.657
4.7301	48.702
4.7258	47.516
4.7215	46.079
4.7172	44.417
4.7129	42.599
4.7086	40.755
4.7043	39.007
4.7000	37.446
4.6958	36.116
4.6915	35.037
4.6873	34.197
4.6831	33.575
4.6788	33.151
4.6746	32.910
4.6704	32.839
4.6662	32.947
4.6620	33.266
4.6578	33.840
4.6536	34.678
4.6495	35.769
4.6453	37.077
4.6411	38.503
4.6370	39.916
4.6328	41.231
4.6287	42.417
4.6246	43.467
4.6205	44.361
4.6163	45.101
4.6122	45.701
4.6081	46.159
4.6040	46.489
4.6000	46.734
4.5959	46.939
4.5918	47.135
4.5877	47.315
4.5837	47.460
4.5796	47.557
4.5756	47.610
4.5716	47.649
4.5675	47.699
4.5635	47.752
4.5595	47.802
4.5555	47.846
4.5515	47.876
4.5475	47.889
4.5435	47.886
4.5395	47.883
4.5356	47.891
4.5316	47.900
4.5276	47.915
4.5237	47.940
4.5197	47.974
4.5158	48.017
4.5119	48.071
4.5080	48.151
4.5040	48.267
4.5001	48.438
4.4962	48.671
4.4923	48.963
4.4884	49.303
4.4846	49.673
4.4807	50.064
4.4768	50.463
4.4730	50.845
4.4691	51.196
4.4652	51.516
4.4614	51.806
4.4576	52.069
4.4537	52.321
4.4499	52.591
4.4461	52.881
4.4423	53.179
4.4385	53.468
4.4347	53.737
4.4309	53.974
4.4271	54.168
4.4233	54.329
4.4196	54.457
4.4158	54.553
4.4120	54.622
4.4083	54.656
4.4045	54.663
4.4008	54.662
4.3971	54.668
4.3934	54.690
4.3896	54.726
4.3859	54.773
4.3822	54.802
4.3785	54.779
4.3748	54.690
4.3711	54.525
4.3674	54.282
4.3638	53.960
4.3601	53.581
4.3564	53.172
4.3528	52.759
4.3491	52.367
4.3455	52.003
4.3418	51.659
4.3382	51.316
4.3346	50.950
4.3310	50.539
4.3273	50.069
4.3237	49.538
4.3201	48.947
4.3165	48.297
4.3129	47.595
4.3094	46.853
4.3058	46.068
4.3022	45.227
4.2986	44.304
4.2951	43.299
4.2915	42.218
4.2880	41.077
4.2844	39.902
4.2809	38.742
4.2774	37.673
4.2738	36.802
4.2703	36.240
4.2668	36.064
4.2633	36.285
4.2598	36.861
4.2563	37.689
4.2528	38.647
4.2493	39.638
4.2458	40.618
4.2424	41.567
4.2389	42.476
4.2354	43.351
4.2320	44.214
4.2285	45.069
4.2251	45.906
4.2216	46.709
4.2182	47.457
4.2148	48.127
4.2113	48.699
4.2079	49.157
4.2045	49.500
4.2011	49.739
4.1977	49.881
4.1943	49.946
4.1909	49.956
4.1875	49.927
4.1841	49.863
4.1808	49.772
4.1774	49.659
4.1740	49.521
4.1707	49.352
4.1673	49.167
4.1640	48.963
4.1606	48.739
4.1573	48.489
4.1540	48.213
4.1506	47.909
4.1473	47.565
4.1440	47.181
4.1407	46.771
4.1374	46.336
4.1341	45.883
4.1308	45.417
4.1275	44.932
4.1242	44.439
4.1209	43.939
4.1177	43.432
4.1144	42.924
4.1111	42.414
4.1079	41.894
4.1046	41.362
4.1014	40.816
4.0981	40.262
4.0949	39.693
4.0917	39.098
4.0884	38.479
4.0852	37.823
4.0820	37.110
4.0788	36.342
4.0756	35.529
4.0724	34.686
4.0692	33.830
4.0660	32.961
4.0628	32.067
4.0596	31.114
4.0565	30.044
4.0533	28.793
4.0501	27.331
4.0470	25.663
4.0438	23.855
4.0406	22.000
4.0375	20.205
4.0344	18.551
4.0312	17.061
4.0281	15.736
4.0250	14.553
4.0218	13.455
4.0187	12.396
4.0156	11.343
4.0125	10.287
4.0094	9.2313
4.0063	8.2014
4.0032	7.2586
4.0001	6.4400
3.9970	5.7546
3.9940	5.1995
3.9909	4.7595
3.9878	4.4322
3.9847	4.2189
3.9817	4.0986
3.9786	4.0538
3.9756	4.0638
3.9725	4.1189
3.9695	4.2066
3.9665	4.3243
3.9634	4.4993
3.9604	4.7583
3.9574	5.1041
3.9544	5.5420
3.9513	6.0921
3.9483	6.7798
3.9453	7.5802
3.9423	8.4112
3.9393	9.1716
3.9363	9.7871
3.9333	10.232
3.9304	10.532
3.9274	10.743
3.9244	10.943
3.9214	11.171
3.9185	11.406
3.9155	11.612
3.9126	11.774
3.9096	11.904
3.9067	12.019
3.9037	12.119
3.9008	12.218
3.8979	12.319
3.8949	12.408
3.8920	12.489
3.8891	12.574
3.8862	12.663
3.8833	12.742
3.8804	12.807
3.8775	12.873
3.8746	12.933
3.8717	12.976
3.8688	13.025
3.8659	13.099
3.8630	13.191
3.8601	13.284
3.8573	13.387
3.8544	13.513
3.8515	13.654
3.8487	13.818
3.8458	14.038
3.8430	14.344
3.8401	14.757
3.8373	15.304
3.8344	15.997
3.8316	16.827
3.8288	17.749
3.8259	18.729
3.8231	19.756
3.8203	20.820
3.8175	21.924
3.8147	23.102
3.8119	24.389
3.8091	25.818
3.8063	27.420
3.8035	29.212
3.8007	31.203
3.7979	33.347
3.7951	35.540
3.7924	37.653
3.7896	39.562
3.7868	41.185
3.7841	42.500
3.7813	43.534
3.7785	44.365
3.7758	45.063
3.7730	45.670
3.7703	46.205
3.7676	46.672
3.7648	47.075
3.7621	47.408
3.7594	47.681
3.7566	47.910
3.7539	48.102
3.7512	48.286
3.7485	48.486
3.7458	48.714
3.7431	48.969
3.7404	49.246
3.7377	49.534
3.7350	49.812
3.7323	50.057
3.7296	50.266
3.7269	50.454
3.7242	50.618
3.7216	50.755
3.7189	50.875
3.7162	50.982
3.7136	51.076
3.7109	51.157
3.7083	51.227
3.7056	51.292
3.7030	51.348
3.7003	51.396
3.6977	51.432
3.6950	51.454
3.6924	51.471
3.6898	51.483
3.6872	51.487
3.6845	51.484
3.6819	51.476
3.6793	51.456
3.6767	51.421
3.6741	51.371
3.6715	51.314
3.6689	51.253
3.6663	51.185
3.6637	51.113
3.6611	51.036
3.6585	50.946
3.6560	50.858
3.6534	50.762
3.6508	50.653
3.6482	50.542
3.6457	50.429
3.6431	50.314
3.6406	50.191
3.6380	50.058
3.6355	49.928
3.6329	49.783
3.6304	49.622
3.6278	49.460
3.6253	49.297
3.6227	49.135
3.6202	48.960
3.6177	48.763
3.6152	48.548
3.6127	48.306
3.6101	48.035
3.6076	47.740
3.6051	47.418
3.6026	47.063
3.6001	46.664
3.5976	46.223
3.5951	45.726
3.5926	45.158
3.5901	44.516
3.5876	43.796
3.5852	42.975
3.5827	42.035
3.5802	41.026
3.5777	40.062
3.5753	39.238
3.5728	38.631
3.5704	38.281
3.5679	38.152
3.5654	38.126
3.5630	38.066
3.5605	37.893
3.5581	37.582
3.5557	37.125
3.5532	36.549
3.5508	35.881
3.5484	35.120
3.5459	34.253
3.5435	33.266
3.5411	32.151
3.5387	30.896
3.5363	29.493
3.5338	27.939
3.5314	26.229
3.5290	24.377
3.5266	22.438
3.5242	20.505
3.5218	18.685
3.5195	17.078
3.5171	15.737
3.5147	14.665
3.5123	13.840
3.5099	13.200
3.5075	12.667
3.5052	12.198
3.5028	11.764
3.5004	11.338
3.4981	10.907
3.4957	10.482
3.4934	10.080
3.4910	9.6933
3.4887	9.3232
3.4863	8.9808
3.4840	8.6750
3.4816	8.4224
3.4793	8.2762
3.4770	8.3096
3.4746	8.5791
3.4723	9.1174
3.4700	9.9136
3.4677	10.873
3.4653	11.878
3.4630	12.818
3.4607	13.611
3.4584	14.223
3.4561	14.665
3.4538	14.969
3.4515	15.181
3.4492	15.334
3.4469	15.453
3.4446	15.552
3.4423	15.634
3.4400	15.708
3.4378	15.770
3.4355	15.815
3.4332	15.858
3.4309	15.895
3.4287	15.902
3.4264	15.890
3.4241	15.867
3.4219	15.844
3.4196	15.822
3.4174	15.800
3.4151	15.776
3.4129	15.734
3.4106	15.656
3.4084	15.569
3.4061	15.481
3.4039	15.386
3.4017	15.293
3.3994	15.200
3.3972	15.111
3.3950	15.017
3.3928	14.917
3.3906	14.810
3.3883	14.689
3.3861	14.559
3.3839	14.432
3.3817	14.316
3.3795	14.224
3.3773	14.149
3.3751	14.085
3.3729	14.024
3.3707	13.938
3.3685	13.808
3.3663	13.605
3.3641	13.309
3.3620	12.939
3.3598	12.522
3.3576	12.089
3.3554	11.691
3.3533	11.394
3.3511	11.307
3.3489	11.585
3.3468	12.382
3.3446	13.814
3.3425	15.854
3.3403	18.331
3.3382	21.007
3.3360	23.621
3.3339	25.969
3.3317	27.968
3.3296	29.623
3.3274	30.990
3.3253	32.129
3.3232	33.097
3.3210	33.949
3.3189	34.703
3.3168	35.372
3.3147	35.975
3.3126	36.519
3.3104	37.007
3.3083	37.463
3.3062	37.904
3.3041	38.328
3.3020	38.718
3.2999	39.080
3.2978	39.417
3.2957	39.723
3.2936	39.993
3.2915	40.244
3.2894	40.489
3.2874	40.727
3.2853	40.959
3.2832	41.184
3.2811	41.407
3.2790	41.627
3.2770	41.823
3.2749	41.995
3.2728	42.158
3.2708	42.307
3.2687	42.447
3.2666	42.571
3.2646	42.679
3.2625	42.780
3.2605	42.884
3.2584	42.979
3.2564	43.065
3.2543	43.144
3.2523	43.222
3.2503	43.297
3.2482	43.352
3.2462	43.389
3.2442	43.427
3.2421	43.461
3.2401	43.494
3.2381	43.544
3.2361	43.612
3.2340	43.685
3.2320	43.748
3.2300	43.792
3.2280	43.827
3.2260	43.852
3.2240	43.863
3.2220	43.872
3.2200	43.875
3.2180	43.876
3.2160	43.878
3.2140	43.889
3.2120	43.901
3.2100	43.909
3.2080	43.914
3.2060	43.901
3.2040	43.874
3.2021	43.846
3.2001	43.813
3.1981	43.772
3.1961	43.724
3.1942	43.693
3.1922	43.670
3.1902	43.636
3.1883	43.600
3.1863	43.557
3.1844	43.480
3.1824	43.376
3.1805	43.259
3.1785	43.136
3.1766	43.009
3.1746	42.879
3.1727	42.742
3.1707	42.574
3.1688	42.346
3.1669	42.076
3.1649	41.785
3.1630	41.481
3.1611	41.187
3.1591	40.919
3.1572	40.670
3.1553	40.451
3.1534	40.285
3.1515	40.178
3.1495	40.122
3.1476	40.112
3.1457	40.126
3.1438	40.139
3.1419	40.148
3.1400	40.157
3.1381	40.174
3.1362	40.196
3.1343	40.216
3.1324	40.228
3.1305	40.215
3.1286	40.173
3.1268	40.108
3.1249	40.000
3.1230	39.842
3.1211	39.638
3.1192	39.402
3.1174	39.159
3.1155	38.929
3.1136	38.720
3.1117	38.554
3.1099	38.459
3.1080	38.425
3.1061	38.437
3.1043	38.486
3.1024	38.565
3.1006	38.646
3.0987	38.708
3.0969	38.777
3.0950	38.870
3.0932	38.975
3.0913	39.084
3.0895	39.196
3.0876	39.302
3.0858	39.395
3.0840	39.475
3.0821	39.557
3.0803	39.639
3.0785	39.706
3.0766	39.742
3.0748	39.761
3.0730	39.762
3.0712	39.749
3.0694	39.731
3.0675	39.717
3.0657	39.711
3.0639	39.711
3.0621	39.722
3.0603	39.745
3.0585	39.770
3.0567	39.786
3.0549	39.801
3.0531	39.816
3.0513	39.811
3.0495	39.808
3.0477	39.808
3.0459	39.810
3.0441	39.815
3.0423	39.813
3.0406	39.807
3.0388	39.796
3.0370	39.766
3.0352	39.742
3.0334	39.738
3.0317	39.744
3.0299	39.749
3.0281	39.737
3.0264	39.707
3.0246	39.671
3.0228	39.634
3.0211	39.610
3.0193	39.597
3.0176	39.566
3.0158	39.534
3.0140	39.497
3.0123	39.450
3.0105	39.408
3.0088	39.376
3.0070	39.347
3.0053	39.305
3.0036	39.252
3.0018	39.225
3.0001	39.211
2.9984	39.194
2.9966	39.165
2.9949	39.128
2.9932	39.092
2.9914	39.051
2.9897	39.006
2.9880	38.973
2.9863	38.948
2.9845	38.914
2.9828	38.860
2.9811	38.795
2.9794	38.740
2.9777	38.685
2.9760	38.626
2.9743	38.576
2.9726	38.533
2.9709	38.493
2.9692	38.452
2.9675	38.405
2.9658	38.362
2.9641	38.328
2.9624	38.276
2.9607	38.224
2.9590	38.186
2.9573	38.158
2.9556	38.117
2.9539	38.064
2.9523	38.023
2.9506	38.000
2.9489	37.974
2.9472	37.957
2.9455	37.950
2.9439	37.946
2.9422	37.936
2.9405	37.934
2.9389	37.940
2.9372	37.945
2.9355	37.948
2.9339	37.951
2.9322	37.941
2.9306	37.935
2.9289	37.942
2.9272	37.955
2.9256	37.955
2.9239	37.949
2.9223	37.953
2.9207	37.974
2.9190	37.991
2.9174	38.018
2.9157	38.067
2.9141	38.117
2.9124	38.164
2.9108	38.202
2.9092	38.230
2.9075	38.260
2.9059	38.299
2.9043	38.335
2.9027	38.375
2.9010	38.420
2.8994	38.475
2.8978	38.527
2.8962	38.570
2.8946	38.623
2.8929	38.691
2.8913	38.741
2.8897	38.785
2.8881	38.828
2.8865	38.880
2.8849	38.956
2.8833	39.033
2.8817	39.101
2.8801	39.167
2.8785	39.220
2.8769	39.269
2.8753	39.311
2.8737	39.361
2.8721	39.448
2.8705	39.539
2.8689	39.614
2.8673	39.682
2.8658	39.733
2.8642	39.769
2.8626	39.800
2.8610	39.824
2.8594	39.866
2.8579	39.921
2.8563	39.988
2.8547	40.069
2.8531	40.141
2.8516	40.196
2.8500	40.246
2.8484	40.282
2.8469	40.312
2.8453	40.340
2.8437	40.371
2.8422	40.412
2.8406	40.452
2.8391	40.475
2.8375	40.487
2.8360	40.505
2.8344	40.524
2.8329	40.530
2.8313	40.521
2.8298	40.519
2.8282	40.525
2.8267	40.524
2.8252	40.517
2.8236	40.521
2.8221	40.523
2.8205	40.497
2.8190	40.443
2.8175	40.389
2.8159	40.337
2.8144	40.282
2.8129	40.244
2.8114	40.210
2.8098	40.151
2.8083	40.056
2.8068	39.942
2.8053	39.825
2.8038	39.691
2.8022	39.534
2.8007	39.368
2.7992	39.163
2.7977	38.909
2.7962	38.608
2.7947	38.289
2.7932	37.975
2.7917	37.687
2.7902	37.459
2.7887	37.312
2.7872	37.238
2.7857	37.254
2.7842	37.346
2.7827	37.487
2.7812	37.666
2.7797	37.855
2.7782	38.042
2.7767	38.206
2.7752	38.342
2.7738	38.478
2.7723	38.619
2.7708	38.745
2.7693	38.824
2.7678	38.754
2.7664	38.509
2.7649	38.224
2.7634	38.043
2.7619	38.056
2.7605	38.302
2.7590	38.745
2.7575	39.273
2.7561	39.722
2.7546	40.050
2.7531	40.345
2.7517	40.629
2.7502	40.903
2.7488	41.180
2.7473	41.432
2.7458	41.651
2.7444	41.843
2.7429	42.016
2.7415	42.181
2.7400	42.351
2.7386	42.576
2.7371	42.884
2.7357	43.259
2.7343	43.694
2.7328	44.154
2.7314	44.572
2.7299	44.923
2.7285	45.229
2.7271	45.542
2.7256	45.909
2.7242	46.358
2.7228	46.888
2.7213	47.472
2.7199	48.048
2.7185	48.558
2.7171	48.970
2.7156	49.276
2.7142	49.479
2.7128	49.555
2.7114	49.502
2.7100	49.337
2.7085	49.078
2.7071	48.814
2.7057	48.693
2.7043	48.836
2.7029	49.310
2.7015	50.079
2.7001	51.038
2.6987	52.039
2.6973	52.952
2.6959	53.743
2.6945	54.423
2.6931	54.989
2.6917	55.497
2.6903	55.966
2.6889	56.361
2.6875	56.675
2.6861	56.933
2.6847	57.162
2.6833	57.361
2.6819	57.514
2.6805	57.653
2.6791	57.783
2.6778	57.891
2.6764	57.991
2.6750	58.079
2.6736	58.156
2.6722	58.223
2.6709	58.273
2.6695	58.325
2.6681	58.382
2.6667	58.433
2.6654	58.481
2.6640	58.523
2.6626	58.558
2.6613	58.588
2.6599	58.616
2.6585	58.647
2.6572	58.682
2.6558	58.704
2.6545	58.716
2.6531	58.735
2.6517	58.754
2.6504	58.766
2.6490	58.765
2.6477	58.767
2.6463	58.766
2.6450	58.763
2.6436	58.761
2.6423	58.769
2.6409	58.783
2.6396	58.794
2.6382	58.798
2.6369	58.806
2.6356	58.806
2.6342	58.806
2.6329	58.807
2.6315	58.805
2.6302	58.791
2.6289	58.766
2.6275	58.731
2.6262	58.704
2.6249	58.682
2.6236	58.670
2.6222	58.672
2.6209	58.683
2.6196	58.688
2.6183	58.684
2.6169	58.672
2.6156	58.642
2.6143	58.616
2.6130	58.597
2.6117	58.579
2.6103	58.557
2.6090	58.528
2.6077	58.507
2.6064	58.496
2.6051	58.469
2.6038	58.449
2.6025	58.434
2.6012	58.399
2.5999	58.354
2.5986	58.310
2.5973	58.269
2.5960	58.227
2.5947	58.171
2.5934	58.116
2.5921	58.071
2.5908	58.018
2.5895	57.957
2.5882	57.885
2.5869	57.792
2.5856	57.696
2.5843	57.614
2.5830	57.550
2.5817	57.496
2.5805	57.449
2.5792	57.406
2.5779	57.361
2.5766	57.315
2.5753	57.267
2.5741	57.193
2.5728	57.094
2.5715	56.977
2.5702	56.844
2.5690	56.707
2.5677	56.563
2.5664	56.402
2.5651	56.210
2.5639	55.986
2.5626	55.739
2.5613	55.467
2.5601	55.164
2.5588	54.838
2.5575	54.469
2.5563	54.049
2.5550	53.590
2.5538	53.103
2.5525	52.605
2.5513	52.097
2.5500	51.570
2.5487	51.036
2.5475	50.502
2.5462	49.992
2.5450	49.506
2.5437	49.045
2.5425	48.633
2.5413	48.274
2.5400	47.973
2.5388	47.750
2.5375	47.617
2.5363	47.577
2.5350	47.616
2.5338	47.723
2.5326	47.893
2.5313	48.099
2.5301	48.339
2.5289	48.621
2.5276	48.920
2.5264	49.223
2.5252	49.534
2.5239	49.845
2.5227	50.143
2.5215	50.407
2.5202	50.638
2.5190	50.849
2.5178	51.030
2.5166	51.176
2.5154	51.300
2.5141	51.414
2.5129	51.512
2.5117	51.601
2.5105	51.685
2.5093	51.768
2.5081	51.844
2.5068	51.905
2.5056	51.964
2.5044	52.007
2.5032	52.029
2.5020	52.049
2.5008	52.083
2.4996	52.126
2.4984	52.171
2.4972	52.222
2.4960	52.273
2.4948	52.313
2.4936	52.353
2.4924	52.399
2.4912	52.459
2.4900	52.520
2.4888	52.575
2.4876	52.642
2.4864	52.730
2.4852	52.836
2.4840	52.951
2.4828	53.075
2.4816	53.219
2.4805	53.368
2.4793	53.507
2.4781	53.650
2.4769	53.809
2.4757	53.969
2.4745	54.122
2.4734	54.272
2.4722	54.428
2.4710	54.592
2.4698	54.751
2.4686	54.907
2.4675	55.065
2.4663	55.216
2.4651	55.348
2.4640	55.466
2.4628	55.581
2.4616	55.706
2.4604	55.831
2.4593	55.939
2.4581	56.027
2.4569	56.104
2.4558	56.172
2.4546	56.236
2.4535	56.312
2.4523	56.393
2.4511	56.477
2.4500	56.542
2.4488	56.586
2.4477	56.641
2.4465	56.704
2.4454	56.764
2.4442	56.828
2.4431	56.893
2.4419	56.953
2.4408	56.984
2.4396	57.005
2.4385	57.045
2.4373	57.088
2.4362	57.132
2.4350	57.171
2.4339	57.220
2.4327	57.266
2.4316	57.291
2.4305	57.315
2.4293	57.349
2.4282	57.388
2.4270	57.428
2.4259	57.452
2.4248	57.487
2.4236	57.532
2.4225	57.572
2.4214	57.599
2.4202	57.608
2.4191	57.614
2.4180	57.624
2.4169	57.639
2.4157	57.672
2.4146	57.721
2.4135	57.764
2.4124	57.787
2.4112	57.770
2.4101	57.736
2.4090	57.705
2.4079	57.684
2.4068	57.675
2.4056	57.679
2.4045	57.689
2.4034	57.689
2.4023	57.687
2.4012	57.690
2.4001	57.686
2.3990	57.679
2.3979	57.673
2.3967	57.678
2.3956	57.680
2.3945	57.681
2.3934	57.687
2.3923	57.683
2.3912	57.661
2.3901	57.637
2.3890	57.611
2.3879	57.579
2.3868	57.545
2.3857	57.533
2.3846	57.525
2.3835	57.499
2.3824	57.466
2.3813	57.434
2.3802	57.400
2.3791	57.361
2.3781	57.319
2.3770	57.278
2.3759	57.237
2.3748	57.194
2.3737	57.138
2.3726	57.077
2.3715	57.016
2.3704	56.950
2.3694	56.870
2.3683	56.764
2.3672	56.648
2.3661	56.538
2.3650	56.409
2.3640	56.257
2.3629	56.078
2.3618	55.875
2.3607	55.673
2.3597	55.469
2.3586	55.260
2.3575	55.051
2.3564	54.836
2.3554	54.606
2.3543	54.367
2.3532	54.134
2.3522	53.921
2.3511	53.727
2.3500	53.548
2.3490	53.365
2.3479	53.196
2.3468	53.048
2.3458	52.919
2.3447	52.813
2.3436	52.728
2.3426	52.672
2.3415	52.645
2.3405	52.623
2.3394	52.613
2.3384	52.624
2.3373	52.653
2.3363	52.693
2.3352	52.738
2.3342	52.797
2.3331	52.879
2.3321	52.979
2.3310	53.083
2.3300	53.192
2.3289	53.324
2.3279	53.456
2.3268	53.577
2.3258	53.691
2.3247	53.800
2.3237	53.904
2.3226	53.992
2.3216	54.061
2.3206	54.138
2.3195	54.222
2.3185	54.300
2.3175	54.371
2.3164	54.436
2.3154	54.486
2.3144	54.526
2.3133	54.563
2.3123	54.614
2.3113	54.662
2.3102	54.694
2.3092	54.740
2.3082	54.776
2.3071	54.777
2.3061	54.777
2.3051	54.785
2.3041	54.806
2.3030	54.828
2.3020	54.856
2.3010	54.896
2.3000	54.921
2.2990	54.927
2.2979	54.952
2.2969	55.006
2.2959	55.070
2.2949	55.127
2.2939	55.185
2.2929	55.239
2.2918	55.272
2.2908	55.282
2.2898	55.309
2.2888	55.360
2.2878	55.408
2.2868	55.453
2.2858	55.509
2.2848	55.579
2.2838	55.632
2.2828	55.683
2.2818	55.747
2.2808	55.816
2.2798	55.869
2.2787	55.907
2.2777	55.937
2.2767	55.986
2.2757	56.041
2.2747	56.100
2.2738	56.157
2.2728	56.216
2.2718	56.265
2.2708	56.297
2.2698	56.331
2.2688	56.365
2.2678	56.403
2.2668	56.442
2.2658	56.476
2.2648	56.510
2.2638	56.547
2.2628	56.569
2.2618	56.572
2.2609	56.569
2.2599	56.585
2.2589	56.607
2.2579	56.631
2.2569	56.659
2.2559	56.704
2.2550	56.734
2.2540	56.744
2.2530	56.756
2.2520	56.773
2.2510	56.788
2.2501	56.794
2.2491	56.805
2.2481	56.829
2.2471	56.854
2.2462	56.877
2.2452	56.904
2.2442	56.936
2.2433	56.964
2.2423	56.966
2.2413	56.944
2.2403	56.919
2.2394	56.917
2.2384	56.924
2.2374	56.955
2.2365	57.000
2.2355	57.037
2.2345	57.063
2.2336	57.059
2.2326	57.026
2.2317	57.004
2.2307	56.981
2.2297	56.977
2.2288	56.986
2.2278	56.998
2.2269	57.015
2.2259	57.015
2.2250	57.007
2.2240	57.016
2.2231	57.031
2.2221	57.046
2.2211	57.053
2.2202	57.055
2.2192	57.049
2.2183	57.036
2.2173	57.019
2.2164	56.986
2.2155	56.970
2.2145	56.969
2.2136	56.973
2.2126	56.979
2.2117	56.987
2.2107	56.984
2.2098	56.941
2.2088	56.892
2.2079	56.886
2.2070	56.900
2.2060	56.926
2.2051	56.956
2.2041	56.990
2.2032	57.005
2.2023	56.996
2.2013	57.001
2.2004	57.029
2.1995	57.033
2.1985	57.022
2.1976	57.011
2.1967	56.993
2.1957	56.979
2.1948	56.981
2.1939	56.993
2.1930	57.016
2.1920	57.012
2.1911	56.996
2.1902	56.999
2.1893	57.003
2.1883	57.022
2.1874	57.045
2.1865	57.051
2.1856	57.060
2.1846	57.058
2.1837	57.031
2.1828	57.017
2.1819	57.016
2.1810	57.039
2.1800	57.053
2.1791	57.041
2.1782	57.030
2.1773	57.012
2.1764	56.969
2.1755	56.941
2.1746	56.929
2.1736	56.941
2.1727	56.957
2.1718	56.958
2.1709	56.943
2.1700	56.918
2.1691	56.889
2.1682	56.868
2.1673	56.844
2.1664	56.833
2.1655	56.844
2.1646	56.842
2.1637	56.824
2.1628	56.796
2.1619	56.775
2.1610	56.778
2.1601	56.783
2.1592	56.801
2.1583	56.819
2.1574	56.814
2.1565	56.798
2.1556	56.774
2.1547	56.761
2.1538	56.758
2.1529	56.748
2.1520	56.737
2.1511	56.738
2.1502	56.744
2.1493	56.759
2.1484	56.787
2.1475	56.810
2.1466	56.825
2.1458	56.826
2.1449	56.806
2.1440	56.801
2.1431	56.790
2.1422	56.795
2.1413	56.835
2.1404	56.851
2.1396	56.872
2.1387	56.893
2.1378	56.889
2.1369	56.878
2.1360	56.856
2.1352	56.847
2.1343	56.854
2.1334	56.850
2.1325	56.866
2.1316	56.888
2.1308	56.893
2.1299	56.870
2.1290	56.852
2.1281	56.848
2.1273	56.861
2.1264	56.856
2.1255	56.824
2.1247	56.811
2.1238	56.791
2.1229	56.752
2.1220	56.741
2.1212	56.770
2.1203	56.819
2.1194	56.826
2.1186	56.812
2.1177	56.819
2.1168	56.802
2.1160	56.766
2.1151	56.763
2.1143	56.777
2.1134	56.782
2.1125	56.779
2.1117	56.766
2.1108	56.751
2.1100	56.742
2.1091	56.729
2.1082	56.739
2.1074	56.754
2.1065	56.770
2.1057	56.789
2.1048	56.786
2.1040	56.782
2.1031	56.784
2.1023	56.765
2.1014	56.739
2.1005	56.723
2.0997	56.717
2.0988	56.712
2.0980	56.713
2.0971	56.729
2.0963	56.748
2.0955	56.767
2.0946	56.778
2.0938	56.771
2.0929	56.739
2.0921	56.702
2.0912	56.680
2.0904	56.680
2.0895	56.690
2.0887	56.710
2.0879	56.731
2.0870	56.737
2.0862	56.726
2.0853	56.718
2.0845	56.704
2.0837	56.689
2.0828	56.676
2.0820	56.638
2.0812	56.658
2.0803	56.659
2.0795	56.648
2.0760	56.648
2.0720	56.720
2.0680	56.690
2.0640	56.813
2.0600	56.453
2.0560	56.947
2.0520	57.040
2.0480	56.741
2.0440	56.741
2.0400	56.023
2.0360	55.881
2.0320	55.973
2.0280	55.955
2.0240	55.388
2.0200	55.537
2.0160	55.721
2.0120	55.721
2.0080	55.289
2.0040	55.099
2.0000	55.231
1.9960	54.837
1.9920	54.623
1.9880	54.720
1.9840	54.672
1.9800	54.290
1.9760	54.387
1.9720	54.068
1.9680	53.839
1.9640	54.068
1.9600	53.744
1.9560	53.469
1.9520	53.807
1.9480	53.807
1.9440	53.487
1.9400	53.306
1.9360	53.082
1.9320	53.137
1.9280	52.966
1.9240	53.442
1.9200	53.447
1.9160	53.724
1.9120	53.762
1.9080	54.099
1.9040	54.370
1.9000	54.775
1.8960	55.144
1.8920	54.657
1.8880	54.284
1.8840	53.582
1.8800	53.077
1.8760	52.725
1.8720	52.327
1.8680	52.245
1.8640	52.940
1.8600	53.731
1.8560	54.298
1.8520	54.292
1.8480	53.762
1.8440	53.106
1.8400	52.953
1.8360	53.060
1.8320	53.323
1.8280	53.871
1.8240	53.743
1.8200	53.230
1.8160	53.130
1.8120	52.808
1.8080	52.723
1.8040	52.995
1.8000	52.723
1.7960	52.723
1.7920	52.412
1.7880	52.274
1.7840	52.321
1.7800	52.236
1.7760	52.104
1.7720	52.018
1.7680	51.930
1.7640	51.794
1.7600	51.750
1.7560	51.793
1.7520	51.969
1.7480	51.834
1.7440	51.703
1.7400	52.104
1.7360	51.838
1.7320	51.575
1.7280	51.621
1.7240	51.754
1.7200	52.022
1.7160	52.380
1.7120	52.288
1.7080	52.016
1.7040	52.018
1.7000	51.794
1.6960	51.750
1.6920	51.794
1.6880	51.706
1.6840	51.628
1.6800	51.794
1.6760	51.661
1.6720	51.352
1.6680	51.176
1.6640	51.275
1.6600	51.409
1.6560	51.363
1.6520	51.407
1.6480	51.010
1.6440	50.922
1.6400	51.232
1.6360	51.143
1.6320	50.834
1.6280	51.100
1.6240	51.143
1.6200	50.834
1.6160	50.747
1.6120	50.834
1.6080	50.746
1.6040	50.658
1.6000	50.659
1.5960	50.483
1.5920	50.613
1.5880	50.701
1.5840	50.657
1.5800	50.790
1.5760	50.790
1.5720	50.481
1.5680	50.481
1.5640	50.525
1.5600	50.415
1.5560	50.571
1.5520	50.282
1.5480	50.393
1.5440	50.282
1.5400	50.285
1.5360	50.155
1.5320	50.198
1.5280	49.980
1.5240	49.809
1.5200	49.935
1.5160	49.975
1.5120	49.803
1.5080	49.632
1.5040	49.071
1.5000	49.058
1.4960	49.006
1.4920	49.703
1.4880	50.182
1.4840	49.585
1.4800	49.489
1.4760	49.489
1.4720	49.446
1.4680	49.361
1.4640	49.283
1.4600	49.361
1.4560	49.329
1.4520	49.157
1.4480	49.023
1.4440	48.768
1.4400	48.521
1.4360	48.433
1.4320	48.680
1.4280	48.771
1.4240	48.771
1.4200	48.729
1.4160	48.593
1.4120	48.160
1.4080	47.770
1.4040	47.975
1.4000	48.141
1.3960	48.555
1.3920	48.899
1.3880	49.028
1.3840	48.895
1.3800	48.767
1.3760	48.767
1.3720	49.524
1.3680	49.704
1.3640	48.917
1.3600	48.016
1.3560	48.187
1.3520	49.228
1.3480	49.635
1.3440	49.641
1.3400	49.224
1.3360	48.414
1.3320	47.653
1.3280	47.566
1.3240	47.681
1.3200	47.838
1.3160	48.007
1.3120	47.854
1.3080	47.732
1.3040	47.651
1.3000	47.570
1.2960	47.483
1.2920	47.429
1.2880	47.335
1.2840	47.160
1.2800	46.970
1.2760	46.907
1.2720	47.020
1.2680	47.053
1.2640	47.249
1.2600	47.292
1.2560	47.586
1.2520	47.588
1.2480	48.074
1.2440	48.074
1.2400	48.158
1.2360	48.242
1.2320	48.064
1.2280	47.471
1.2240	47.358
1.2200	47.846
1.2160	48.050
1.2120	48.263
1.2080	48.335
1.2040	48.463
1.2000	47.835
1.1960	47.220
1.1920	47.106
1.1880	47.026
1.1840	46.906
1.1800	46.826
1.1760	46.835
1.1720	46.668
1.1680	46.388
1.1640	46.222
1.1600	46.113
1.1560	45.786
1.1520	45.776
1.1480	45.755
1.1440	45.911
1.1400	46.225
1.1360	46.574
1.1320	46.295
1.1280	46.404
1.1240	46.156
1.1200	46.484
1.1160	46.695
1.1120	46.206
1.1080	45.899
1.1040	45.860
1.1000	45.899
1.0960	46.117
1.0920	46.096
1.0880	45.859
1.0840	45.731
1.0800	45.703
1.0760	45.998
1.0720	45.703
1.0680	45.770
1.0640	45.664
1.0600	45.381
1.0560	45.292
1.0520	45.282
1.0480	45.359
1.0440	45.127
1.0400	45.039
1.0360	44.938
1.0320	45.348
1.0280	45.193
1.0240	45.232
1.0200	45.015
1.0160	45.003
1.0120	44.981
1.0080	44.574
1.0040	44.599
1.0000	44.562
0.99600	44.574
0.99200	45.043
0.98800	44.789
0.98400	44.498
0.98000	44.060
0.97600	44.247
0.97200	44.196
0.96800	44.145
0.96400	44.108
0.96000	44.145
0.95600	44.043
0.95200	43.958
0.94800	43.758
0.94400	43.945
0.94000	43.870
0.93600	43.605
0.93200	43.782
0.92800	43.758
0.92400	43.596
0.92000	43.494
0.91600	43.355
0.91200	43.322
0.90800	43.336
0.90400	43.256
0.90000	43.293
0.89600	43.043
0.89200	43.080
0.88800	42.903
0.88400	43.096
0.88000	43.281
0.87600	42.978
0.87200	42.926
0.86800	42.933
0.86400	42.993
0.86000	43.110
0.85600	42.894
0.85200	42.916
0.84800	42.725
0.84400	42.715
0.84000	42.620
0.83600	42.953
0.83200	42.746
0.82800	42.746
0.82400	42.715
0.82000	42.657
0.81600	42.635
0.81200	42.813
0.80800	42.676
0.80400	42.509
0.80000	42.313
0.79900	42.313
0.79800	42.313
0.79700	42.325
0.79600	42.131
0.79500	42.120
0.79400	41.983
0.79300	41.562
0.79200	41.810
0.79100	41.906
0.79000	42.027
0.78900	41.928
0.78800	42.012
0.78700	42.009
0.78600	41.856
0.78500	42.146
0.78400	42.050
0.78300	42.091
0.78200	41.719
0.78100	41.828
0.78000	41.853
0.77900	41.797
0.77800	41.897
0.77700	41.816
0.77600	41.735
0.77500	41.643
0.77400	41.306
0.77300	41.526
0.77200	41.466
0.77100	41.566
0.77000	41.566
0.76900	41.756
0.76800	41.635
0.76700	41.853
0.76600	41.943
0.76500	41.660
0.76400	41.507
0.76300	41.273
0.76200	41.209
0.76100	41.355
0.76000	41.330
0.75900	41.507
0.75800	41.450
0.75700	41.297
0.75600	41.217
0.75500	41.177
0.75400	41.313
0.75300	41.257
0.75200	41.080
0.75100	41.040
0.75000	41.080
0.74900	40.887
0.74800	40.767
0.74700	41.154
0.74600	41.281
0.74500	41.267
0.74400	41.154
0.74300	41.073
0.74200	40.664
0.74100	40.984
0.74000	41.218
0.73900	40.977
0.73800	40.880
0.73700	40.920
0.73600	40.783
0.73500	40.493
0.73400	40.443
0.73300	40.863
0.73200	40.870
0.73100	40.790
0.73000	40.710
0.72900	41.024
0.72800	40.795
0.72700	40.710
0.72600	40.246
0.72500	40.516
0.72400	40.516
0.72300	40.375
0.72200	40.375
0.72100	40.670
0.72000	40.379
0.71900	40.089
0.71800	40.149
0.71700	40.110
0.71600	39.901
0.71500	40.207
0.71400	40.387
0.71300	40.348
0.71200	40.283
0.71100	39.874
0.71000	39.874
0.70900	39.623
0.70800	39.603
0.70700	40.031
0.70600	40.244
0.70500	40.403
0.70400	40.501
0.70300	40.204
0.70200	40.323
0.70100	40.281
0.70000	39.949
0.69900	40.163
0.69800	40.576
0.69700	40.526
0.69600	40.254
0.69500	40.332
0.69400	40.250
0.69300	39.806
0.69200	39.806
0.69100	40.227
0.69000	40.087
0.68900	40.190
0.68800	39.767
0.68700	39.827
0.68600	39.927
0.68500	39.949
0.68400	39.767
0.68300	39.748
0.68200	39.970
0.68100	39.989
0.68000	39.667
0.67900	39.547
0.67800	39.247
0.67700	39.649
0.67600	39.568
0.67500	39.748
0.67400	39.588
0.67300	39.648
0.67200	39.547
0.67100	39.789
0.67000	39.548
0.66900	39.327
0.66800	39.549
0.66700	39.427
0.66600	39.447
0.66500	39.347
0.66400	39.167
0.66300	39.327
0.66200	39.589
0.66100	39.549
0.66000	39.427
0.65900	39.447
0.65800	39.570
0.65700	39.388
0.65600	39.104
0.65500	38.944
0.65400	39.104
0.65300	39.266
0.65200	39.285
0.65100	39.326
0.65000	38.901
0.64900	38.642
0.64800	38.642
0.64700	38.963
0.64600	39.206
0.64500	39.064
0.64400	38.843
0.64300	38.642
0.64200	38.620
0.64100	38.700
0.64000	38.801
0.63900	39.003
0.63800	38.698
0.63700	38.721
0.63600	38.681
0.63500	38.642
0.63400	38.681
0.63300	38.681
0.63200	38.620
0.63100	38.541
0.63000	38.779
0.62900	38.374
0.62800	38.374
0.62700	38.457
0.62600	38.457
0.62500	38.457
0.62400	38.295
0.62300	38.453
0.62200	38.351
0.62100	38.210
0.62000	38.453
0.61900	38.453
0.61800	38.391
0.61700	38.210
0.61600	38.069
0.61500	37.991
0.61400	37.991
0.61300	37.913
0.61200	37.851
0.61100	37.952
0.61000	37.952
0.60900	37.851
0.60800	37.851
0.60700	37.586
0.60600	37.664
0.60500	37.703
0.60400	37.601
0.60300	37.576
0.60200	37.734
0.60100	37.789
0.60000	37.671
0.59900	37.427
0.59800	37.481
0.59700	37.662
0.59600	37.821
0.59500	37.733
0.59400	37.551
0.59300	37.383
0.59200	37.305
0.59100	37.511
0.59000	37.393
0.58900	37.654
0.58800	37.590
0.58700	37.305
0.58600	37.511
0.58500	37.085
0.58400	36.995
0.58300	37.423
0.58200	36.982
0.58100	37.073
0.58000	36.995
0.57900	37.383
0.57800	37.511
0.57700	37.305
0.57600	37.511
0.57500	37.511
0.57400	37.390
0.57300	37.388
0.57200	37.384
0.57100	37.157
0.57000	37.030
0.56900	36.891
0.56800	36.447
0.56700	36.345
0.56600	36.383
0.56500	36.282
0.56400	36.383
0.56300	36.244
0.56200	36.041
0.56100	36.014
0.56000	36.025
0.55900	34.394
0.55800	35.859
0.55700	35.656
0.55600	35.348
0.55500	35.015
0.55400	34.821
0.55300	34.759
0.55200	34.991
0.55100	34.909
0.55000	35.314
0.54900	35.573
0.54800	35.672
0.54700	35.421
0.54600	35.239
0.54500	34.956
0.54400	34.824
0.54300	35.097
0.54200	34.934
0.54100	35.048
0.54000	34.899
0.53900	34.730
0.53800	34.475
0.53700	34.756
0.53600	34.615
0.53500	34.615
0.53400	34.820
0.53300	34.878
0.53200	34.638
0.53100	34.574
0.53000	34.679
0.52900	34.516
0.52800	34.451
0.52700	34.347
0.52600	34.144
0.52500	34.282
0.52400	34.157
0.52300	33.714
0.52200	33.779
0.52100	33.847
0.52000	33.721
0.51900	33.592
0.51800	33.585
0.51700	33.354
0.51600	33.621
0.51500	33.384
0.51400	33.055
0.51300	33.187
0.51200	33.389
0.51100	33.188
0.51000	33.092
0.50900	33.357
0.50800	32.795
0.50700	32.795
0.50600	32.306
0.50500	32.499
0.50400	32.597
0.50300	32.596
0.50200	32.792
0.50100	32.302
0.50000	32.235
0.49900	32.102
0.49800	31.974
0.49700	32.003
0.49600	32.074
0.49500	31.972
0.49400	32.075
0.49300	31.726
0.49200	31.847
0.49100	31.778
0.49000	32.170
0.48900	32.010
0.48800	31.683
0.48700	31.424
0.48600	31.555
0.48500	31.457
0.48400	31.553
0.48300	31.582
0.48200	31.803
0.48100	31.478
0.48000	31.384
0.47900	30.998
0.47800	30.926
0.47700	30.926
0.47600	31.185
0.47500	31.154
0.47400	30.827
0.47300	30.736
0.47200	30.835
0.47100	30.798
0.47000	30.738
0.46900	30.551
0.46800	30.551
0.46700	30.611
0.46600	30.453
0.46500	30.363
0.46400	30.365
0.46300	30.631
0.46200	30.219
0.46100	30.347
0.46000	30.290
0.45900	30.374
0.45800	30.587
0.45700	30.400
0.45600	30.684
0.45500	30.417
0.45400	30.450
0.45300	30.036
0.45200	29.992
0.45100	30.345
0.45000	30.083
0.44900	30.053
0.44800	30.053
0.44700	30.188
0.44600	29.802
0.44500	29.655
0.44400	29.446
0.44300	29.538
0.44200	29.611
0.44100	29.795
0.44000	29.706
0.43900	29.217
0.43800	29.390
0.43700	29.640
0.43600	29.320
0.43500	29.213
0.43400	29.064
0.43300	29.121
0.43200	28.853
0.43100	28.960
0.43000	28.702
0.42900	28.871
0.42800	28.336
0.42700	28.366
0.42600	28.415
0.42500	28.014
0.42400	28.091
0.42300	28.231
0.42200	27.888
0.42100	27.887
0.42000	28.187
0.41900	28.096
0.41800	27.595
0.41700	27.595
0.41600	27.699
0.41500	27.699
0.41400	27.617
0.41300	27.582
0.41200	27.667
0.41100	27.375
0.41000	27.221
0.40900	27.063
0.40800	27.061
0.40700	27.033
0.40600	27.137
0.40500	27.055
0.40400	26.868
0.40300	26.872
0.40200	26.955
0.40100	26.718
0.40000	26.818
0.0000	
