Name: Sandstone (Micaceous Red)
Type:  Rocks
Class:  Sedimentary
Subclass: Sandstone 
Particle Size:  0 - 75 Micrometers
Sample No.:  sandstone.3
Owner:  JHU
Wavelength Range:  All
Origin:  Sample No. 363,  The Hunt and Salisbury Collection at the U.S. 
Geological Survey, Denver, Co.
Description: Sample consists of subangular to subrounded quartz 
grains, many (~50%) coated with ferruginous material with adhering, 
interstitial muscovite and green biotite mica. Interstitial carbonate, 
as well as larger carbonate crystals, scattered opaques and minor 
microcline, are present. Brown clay may be present in small amounts 
around the grains.
Measurement:  Directional (10 Degree) Hemispherical Reflectance
First Column:  X
Second Column:  Y  
X Units:  Wavelength (micrometers)
Y Units:  Reflectance (percent)
First X Value: 14.0112
Last X Value:  0.4
Number of X Values: 2844
Additional Information:  None

14.983	3.5172
14.940	3.5115
14.897	3.4381
14.854	3.3659
14.812	3.3483
14.770	3.4056
14.728	3.5248
14.686	3.6614
14.645	3.7550
14.603	3.7495
14.562	3.6382
14.521	3.4559
14.481	3.2491
14.441	3.0689
14.400	2.9597
14.361	2.9450
14.321	3.0206
14.281	3.1594
14.242	3.3315
14.203	3.5098
14.164	3.6721
14.126	3.8035
14.087	3.8985
14.049	3.9546
14.011	3.9690
13.973	3.9359
13.936	3.8520
13.899	3.7204
13.861	3.5527
13.824	3.3649
13.788	3.1783
13.751	3.0192
13.715	2.9135
13.679	2.8811
13.643	2.9294
13.607	3.0500
13.571	3.2200
13.536	3.4101
13.500	3.5937
13.465	3.7512
13.430	3.8741
13.396	3.9626
13.361	4.0235
13.327	4.0630
13.293	4.0879
13.259	4.1059
13.225	4.1237
13.191	4.1445
13.158	4.1680
13.124	4.1926
13.091	4.2156
13.058	4.2362
13.026	4.2565
12.993	4.2823
12.960	4.3172
12.928	4.3603
12.896	4.4079
12.864	4.4510
12.832	4.4789
12.800	4.4839
12.769	4.4637
12.737	4.4218
12.706	4.3681
12.675	4.3150
12.644	4.2755
12.614	4.2563
12.583	4.2579
12.552	4.2733
12.522	4.2902
12.492	4.2970
12.462	4.2885
12.432	4.2653
12.402	4.2352
12.373	4.2130
12.343	4.2120
12.314	4.2392
12.285	4.2939
12.256	4.3700
12.227	4.4588
12.198	4.5509
12.169	4.6437
12.141	4.7422
12.113	4.8545
12.084	4.9864
12.056	5.1413
12.028	5.3194
12.000	5.5199
11.973	5.7373
11.945	5.9602
11.918	6.1681
11.890	6.3346
11.863	6.4319
11.836	6.4461
11.809	6.3864
11.782	6.2931
11.755	6.2216
11.729	6.2119
11.702	6.2733
11.676	6.3760
11.650	6.4655
11.624	6.4821
11.598	6.3881
11.572	6.1852
11.546	5.9095
11.520	5.6097
11.495	5.3333
11.469	5.1136
11.444	4.9682
11.419	4.8985
11.394	4.8969
11.369	4.9523
11.344	5.0546
11.319	5.1924
11.294	5.3535
11.270	5.5209
11.245	5.6736
11.221	5.7887
11.197	5.8425
11.173	5.8197
11.149	5.7184
11.125	5.5514
11.101	5.3445
11.077	5.1273
11.054	4.9270
11.030	4.7624
11.007	4.6404
10.983	4.5570
10.960	4.5021
10.937	4.4630
10.914	4.4306
10.891	4.4012
10.868	4.3761
10.846	4.3588
10.823	4.3527
10.800	4.3598
10.778	4.3773
10.755	4.4000
10.733	4.4228
10.711	4.4424
10.689	4.4585
10.667	4.4720
10.645	4.4848
10.623	4.5002
10.602	4.5192
10.580	4.5407
10.558	4.5620
10.537	4.5805
10.516	4.5926
10.494	4.5954
10.473	4.5871
10.452	4.5677
10.431	4.5379
10.410	4.4978
10.389	4.4474
10.368	4.3872
10.348	4.3198
10.327	4.2478
10.306	4.1758
10.286	4.1095
10.266	4.0531
10.245	4.0072
10.225	3.9683
10.205	3.9330
10.185	3.8985
10.165	3.8639
10.145	3.8317
10.125	3.8073
10.106	3.7945
10.086	3.7933
10.066	3.8004
10.047	3.8116
10.027	3.8229
10.008	3.8329
9.9887	3.8433
9.9695	3.8570
9.9504	3.8762
9.9313	3.9006
9.9123	3.9290
9.8934	3.9581
9.8746	3.9851
9.8558	4.0088
9.8371	4.0297
9.8185	4.0503
9.7999	4.0735
9.7814	4.1024
9.7630	4.1393
9.7447	4.1845
9.7264	4.2364
9.7082	4.2928
9.6900	4.3522
9.6719	4.4131
9.6539	4.4749
9.6360	4.5372
9.6181	4.6001
9.6003	4.6639
9.5825	4.7287
9.5649	4.7948
9.5472	4.8618
9.5297	4.9279
9.5122	4.9914
9.4948	5.0520
9.4774	5.1138
9.4601	5.1846
9.4429	5.2767
9.4257	5.4006
9.4086	5.5623
9.3916	5.7577
9.3746	5.9732
9.3577	6.1899
9.3408	6.3902
9.3240	6.5598
9.3073	6.6917
9.2906	6.7867
9.2740	6.8485
9.2574	6.8821
9.2409	6.8937
9.2245	6.8902
9.2081	6.8807
9.1918	6.8719
9.1755	6.8703
9.1593	6.8793
9.1431	6.8994
9.1270	6.9292
9.1110	6.9669
9.0950	7.0095
9.0791	7.0540
9.0632	7.0969
9.0474	7.1343
9.0316	7.1644
9.0159	7.1869
9.0003	7.2046
8.9847	7.2224
8.9691	7.2428
8.9536	7.2676
8.9382	7.2972
8.9228	7.3311
8.9075	7.3683
8.8922	7.4074
8.8770	7.4486
8.8618	7.4912
8.8467	7.5338
8.8316	7.5738
8.8166	7.6094
8.8016	7.6390
8.7867	7.6631
8.7718	7.6828
8.7570	7.6977
8.7422	7.7036
8.7275	7.6899
8.7129	7.6411
8.6982	7.5440
8.6837	7.3993
8.6692	7.2279
8.6547	7.0701
8.6403	6.9756
8.6259	6.9861
8.6116	7.1168
8.5973	7.3503
8.5830	7.6425
8.5688	7.9409
8.5547	8.2007
8.5406	8.3970
8.5266	8.5273
8.5126	8.6045
8.4986	8.6464
8.4847	8.6691
8.4708	8.6847
8.4570	8.7008
8.4432	8.7222
8.4295	8.7537
8.4158	8.8013
8.4022	8.8704
8.3886	8.9654
8.3750	9.0883
8.3615	9.2365
8.3481	9.4032
8.3347	9.5809
8.3213	9.7625
8.3079	9.9439
8.2946	10.125
8.2814	10.309
8.2682	10.495
8.2550	10.678
8.2419	10.847
8.2288	10.988
8.2158	11.084
8.2028	11.119
8.1898	11.087
8.1769	10.987
8.1640	10.830
8.1512	10.634
8.1384	10.420
8.1256	10.208
8.1129	10.011
8.1002	9.8335
8.0876	9.6772
8.0750	9.5385
8.0624	9.4139
8.0499	9.3017
8.0374	9.2015
8.0250	9.1122
8.0126	9.0312
8.0002	8.9550
7.9879	8.8775
7.9756	8.7932
7.9634	8.6985
7.9512	8.5933
7.9390	8.4820
7.9268	8.3717
7.9147	8.2717
7.9027	8.1879
7.8906	8.1204
7.8786	8.0645
7.8667	8.0124
7.8548	7.9561
7.8429	7.8898
7.8310	7.8140
7.8192	7.7332
7.8075	7.6529
7.7957	7.5795
7.7840	7.5168
7.7723	7.4659
7.7607	7.4249
7.7491	7.3901
7.7375	7.3586
7.7260	7.3292
7.7145	7.3034
7.7031	7.2854
7.6916	7.2807
7.6802	7.2911
7.6689	7.3157
7.6575	7.3484
7.6462	7.3823
7.6350	7.4093
7.6238	7.4258
7.6126	7.4320
7.6014	7.4303
7.5903	7.4235
7.5792	7.4114
7.5681	7.3917
7.5571	7.3607
7.5461	7.3145
7.5351	7.2537
7.5242	7.1817
7.5133	7.1040
7.5024	7.0294
7.4916	6.9643
7.4807	6.9131
7.4700	6.8776
7.4592	6.8570
7.4485	6.8478
7.4378	6.8440
7.4272	6.8383
7.4165	6.8241
7.4059	6.7952
7.3954	6.7478
7.3848	6.6820
7.3743	6.6012
7.3639	6.5117
7.3534	6.4198
7.3430	6.3320
7.3326	6.2522
7.3223	6.1823
7.3119	6.1226
7.3016	6.0734
7.2914	6.0324
7.2811	5.9976
7.2709	5.9663
7.2607	5.9360
7.2506	5.9036
7.2404	5.8673
7.2303	5.8273
7.2203	5.7859
7.2102	5.7449
7.2002	5.7058
7.1902	5.6701
7.1803	5.6393
7.1703	5.6147
7.1604	5.5971
7.1506	5.5879
7.1407	5.5886
7.1309	5.6007
7.1211	5.6267
7.1113	5.6743
7.1016	5.7534
7.0919	5.8756
7.0822	6.0476
7.0725	6.2661
7.0629	6.5172
7.0533	6.7762
7.0437	7.0138
7.0341	7.2051
7.0246	7.3356
7.0151	7.4024
7.0056	7.4130
6.9962	7.3806
6.9867	7.3193
6.9773	7.2404
6.9679	7.1540
6.9586	7.0675
6.9493	6.9882
6.9400	6.9207
6.9307	6.8669
6.9214	6.8260
6.9122	6.7940
6.9030	6.7672
6.8938	6.7424
6.8847	6.7185
6.8755	6.6976
6.8664	6.6829
6.8573	6.6758
6.8483	6.6763
6.8393	6.6822
6.8302	6.6915
6.8213	6.7007
6.8123	6.7080
6.8034	6.7147
6.7944	6.7220
6.7855	6.7322
6.7767	6.7455
6.7678	6.7632
6.7590	6.7864
6.7502	6.8153
6.7414	6.8501
6.7327	6.8916
6.7239	6.9415
6.7152	7.0026
6.7065	7.0761
6.6979	7.1637
6.6892	7.2655
6.6806	7.3787
6.6720	7.4976
6.6634	7.6165
6.6549	7.7339
6.6464	7.8507
6.6378	7.9698
6.6294	8.0941
6.6209	8.2239
6.6124	8.3563
6.6040	8.4851
6.5956	8.6061
6.5872	8.7203
6.5789	8.8339
6.5705	8.9571
6.5622	9.1011
6.5539	9.2744
6.5456	9.4800
6.5374	9.7161
6.5292	9.9761
6.5209	10.251
6.5128	10.533
6.5046	10.819
6.4964	11.105
6.4883	11.392
6.4802	11.674
6.4721	11.944
6.4640	12.191
6.4560	12.405
6.4480	12.576
6.4399	12.707
6.4320	12.804
6.4240	12.881
6.4160	12.947
6.4081	13.003
6.4002	13.040
6.3923	13.042
6.3844	12.991
6.3766	12.869
6.3687	12.666
6.3609	12.381
6.3531	12.022
6.3454	11.601
6.3376	11.136
6.3299	10.644
6.3221	10.149
6.3144	9.6663
6.3068	9.2091
6.2991	8.7854
6.2914	8.3987
6.2838	8.0475
6.2762	7.7287
6.2686	7.4417
6.2611	7.1871
6.2535	6.9652
6.2460	6.7753
6.2385	6.6152
6.2310	6.4831
6.2235	6.3770
6.2160	6.2967
6.2086	6.2434
6.2011	6.2207
6.1937	6.2325
6.1863	6.2787
6.1790	6.3564
6.1716	6.4596
6.1643	6.5790
6.1570	6.7028
6.1496	6.8210
6.1424	6.9276
6.1351	7.0202
6.1278	7.1021
6.1206	7.1795
6.1134	7.2605
6.1062	7.3503
6.0990	7.4488
6.0918	7.5525
6.0847	7.6553
6.0776	7.7510
6.0704	7.8351
6.0633	7.9082
6.0563	7.9762
6.0492	8.0439
6.0421	8.1145
6.0351	8.1874
6.0281	8.2616
6.0211	8.3317
6.0141	8.3909
6.0071	8.4349
6.0002	8.4624
5.9932	8.4721
5.9863	8.4643
5.9794	8.4425
5.9725	8.4138
5.9657	8.3871
5.9588	8.3710
5.9520	8.3781
5.9451	8.4188
5.9383	8.4993
5.9315	8.6199
5.9247	8.7759
5.9180	8.9578
5.9112	9.1570
5.9045	9.3656
5.8978	9.5820
5.8911	9.8075
5.8844	10.043
5.8777	10.288
5.8711	10.536
5.8644	10.778
5.8578	11.008
5.8512	11.218
5.8446	11.410
5.8380	11.586
5.8314	11.754
5.8249	11.919
5.8184	12.084
5.8118	12.247
5.8053	12.403
5.7988	12.548
5.7923	12.679
5.7859	12.794
5.7794	12.899
5.7730	13.000
5.7666	13.100
5.7602	13.201
5.7538	13.304
5.7474	13.405
5.7410	13.500
5.7347	13.585
5.7283	13.659
5.7220	13.719
5.7157	13.763
5.7094	13.785
5.7031	13.780
5.6969	13.741
5.6906	13.664
5.6844	13.542
5.6782	13.373
5.6719	13.157
5.6657	12.898
5.6596	12.605
5.6534	12.292
5.6472	11.976
5.6411	11.677
5.6349	11.406
5.6288	11.167
5.6227	10.958
5.6166	10.775
5.6106	10.607
5.6045	10.448
5.5984	10.297
5.5924	10.150
5.5864	10.008
5.5804	9.8679
5.5744	9.7282
5.5684	9.5854
5.5624	9.4371
5.5564	9.2822
5.5505	9.1224
5.5445	8.9621
5.5386	8.8093
5.5327	8.6755
5.5268	8.5715
5.5209	8.5052
5.5151	8.4816
5.5092	8.5015
5.5033	8.5661
5.4975	8.6817
5.4917	8.8616
5.4859	9.1259
5.4801	9.4932
5.4743	9.9730
5.4685	10.556
5.4628	11.211
5.4570	11.890
5.4513	12.539
5.4455	13.109
5.4398	13.565
5.4341	13.890
5.4284	14.085
5.4228	14.160
5.4171	14.127
5.4114	14.000
5.4058	13.796
5.4002	13.534
5.3945	13.234
5.3889	12.923
5.3833	12.627
5.3778	12.369
5.3722	12.163
5.3666	12.017
5.3611	11.931
5.3555	11.902
5.3500	11.922
5.3445	11.982
5.3390	12.073
5.3335	12.187
5.3280	12.315
5.3225	12.451
5.3171	12.595
5.3116	12.746
5.3062	12.909
5.3008	13.090
5.2954	13.299
5.2900	13.539
5.2846	13.818
5.2792	14.135
5.2738	14.492
5.2684	14.886
5.2631	15.316
5.2578	15.784
5.2524	16.291
5.2471	16.837
5.2418	17.420
5.2365	18.031
5.2312	18.651
5.2260	19.259
5.2207	19.828
5.2154	20.337
5.2102	20.769
5.2050	21.118
5.1998	21.387
5.1945	21.586
5.1893	21.729
5.1842	21.832
5.1790	21.909
5.1738	21.970
5.1686	22.023
5.1635	22.070
5.1584	22.111
5.1532	22.147
5.1481	22.181
5.1430	22.216
5.1379	22.259
5.1328	22.314
5.1277	22.384
5.1227	22.460
5.1176	22.532
5.1126	22.580
5.1075	22.587
5.1025	22.540
5.0975	22.433
5.0925	22.270
5.0875	22.066
5.0825	21.844
5.0775	21.631
5.0726	21.454
5.0676	21.334
5.0627	21.282
5.0577	21.296
5.0528	21.362
5.0479	21.456
5.0430	21.553
5.0380	21.635
5.0332	21.691
5.0283	21.725
5.0234	21.745
5.0185	21.769
5.0137	21.808
5.0088	21.875
5.0040	21.976
4.9992	22.117
4.9944	22.306
4.9896	22.551
4.9848	22.862
4.9800	23.245
4.9752	23.696
4.9704	24.196
4.9657	24.716
4.9609	25.222
4.9562	25.680
4.9514	26.070
4.9467	26.391
4.9420	26.661
4.9373	26.911
4.9326	27.180
4.9279	27.505
4.9232	27.916
4.9186	28.429
4.9139	29.045
4.9092	29.752
4.9046	30.524
4.9000	31.327
4.8953	32.126
4.8907	32.888
4.8861	33.589
4.8815	34.216
4.8769	34.766
4.8723	35.244
4.8678	35.659
4.8632	36.023
4.8586	36.344
4.8541	36.629
4.8495	36.882
4.8450	37.109
4.8405	37.313
4.8360	37.499
4.8315	37.671
4.8270	37.831
4.8225	37.981
4.8180	38.120
4.8135	38.251
4.8090	38.376
4.8046	38.497
4.8001	38.615
4.7957	38.731
4.7913	38.843
4.7868	38.950
4.7824	39.052
4.7780	39.150
4.7736	39.246
4.7692	39.343
4.7648	39.440
4.7605	39.534
4.7561	39.622
4.7517	39.699
4.7474	39.765
4.7431	39.820
4.7387	39.866
4.7344	39.904
4.7301	39.931
4.7258	39.939
4.7215	39.923
4.7172	39.875
4.7129	39.788
4.7086	39.662
4.7043	39.500
4.7000	39.306
4.6958	39.094
4.6915	38.872
4.6873	38.653
4.6831	38.446
4.6788	38.256
4.6746	38.088
4.6704	37.940
4.6662	37.816
4.6620	37.716
4.6578	37.642
4.6536	37.598
4.6495	37.584
4.6453	37.601
4.6411	37.642
4.6370	37.701
4.6328	37.770
4.6287	37.843
4.6246	37.919
4.6205	38.003
4.6163	38.102
4.6122	38.225
4.6081	38.380
4.6040	38.572
4.6000	38.797
4.5959	39.047
4.5918	39.313
4.5877	39.581
4.5837	39.842
4.5796	40.089
4.5756	40.319
4.5716	40.530
4.5675	40.722
4.5635	40.894
4.5595	41.048
4.5555	41.180
4.5515	41.290
4.5475	41.375
4.5435	41.437
4.5395	41.472
4.5356	41.482
4.5316	41.469
4.5276	41.437
4.5237	41.389
4.5197	41.330
4.5158	41.264
4.5119	41.198
4.5080	41.137
4.5040	41.085
4.5001	41.044
4.4962	41.011
4.4923	40.978
4.4884	40.936
4.4846	40.880
4.4807	40.811
4.4768	40.733
4.4730	40.659
4.4691	40.601
4.4652	40.568
4.4614	40.562
4.4576	40.583
4.4537	40.623
4.4499	40.679
4.4461	40.748
4.4423	40.828
4.4385	40.923
4.4347	41.035
4.4309	41.168
4.4271	41.321
4.4233	41.493
4.4196	41.680
4.4158	41.879
4.4120	42.088
4.4083	42.303
4.4045	42.523
4.4008	42.745
4.3971	42.965
4.3934	43.182
4.3896	43.393
4.3859	43.594
4.3822	43.786
4.3785	43.969
4.3748	44.143
4.3711	44.307
4.3674	44.458
4.3638	44.591
4.3601	44.699
4.3564	44.773
4.3528	44.807
4.3491	44.800
4.3455	44.756
4.3418	44.686
4.3382	44.603
4.3346	44.516
4.3310	44.433
4.3273	44.354
4.3237	44.280
4.3201	44.207
4.3165	44.135
4.3129	44.065
4.3094	43.999
4.3058	43.939
4.3022	43.886
4.2986	43.838
4.2951	43.792
4.2915	43.741
4.2880	43.675
4.2844	43.590
4.2809	43.488
4.2774	43.384
4.2738	43.305
4.2703	43.278
4.2668	43.324
4.2633	43.445
4.2598	43.623
4.2563	43.827
4.2528	44.021
4.2493	44.181
4.2458	44.301
4.2424	44.383
4.2389	44.440
4.2354	44.485
4.2320	44.524
4.2285	44.560
4.2251	44.594
4.2216	44.628
4.2182	44.664
4.2148	44.706
4.2113	44.755
4.2079	44.810
4.2045	44.865
4.2011	44.916
4.1977	44.957
4.1943	44.986
4.1909	45.004
4.1875	45.012
4.1841	45.012
4.1808	45.008
4.1774	44.999
4.1740	44.985
4.1707	44.965
4.1673	44.938
4.1640	44.904
4.1606	44.866
4.1573	44.827
4.1540	44.792
4.1506	44.765
4.1473	44.752
4.1440	44.751
4.1407	44.762
4.1374	44.782
4.1341	44.805
4.1308	44.828
4.1275	44.847
4.1242	44.856
4.1209	44.853
4.1177	44.838
4.1144	44.809
4.1111	44.770
4.1079	44.722
4.1046	44.665
4.1014	44.601
4.0981	44.530
4.0949	44.451
4.0917	44.362
4.0884	44.260
4.0852	44.143
4.0820	44.007
4.0788	43.849
4.0756	43.672
4.0724	43.475
4.0692	43.262
4.0660	43.034
4.0628	42.793
4.0596	42.538
4.0565	42.268
4.0533	41.980
4.0501	41.671
4.0470	41.334
4.0438	40.966
4.0406	40.560
4.0375	40.115
4.0344	39.627
4.0312	39.094
4.0281	38.513
4.0250	37.880
4.0218	37.190
4.0187	36.440
4.0156	35.628
4.0125	34.761
4.0094	33.848
4.0063	32.905
4.0032	31.943
4.0001	30.971
3.9970	29.988
3.9940	28.986
3.9909	27.952
3.9878	26.879
3.9847	25.777
3.9817	24.672
3.9786	23.611
3.9756	22.649
3.9725	21.841
3.9695	21.221
3.9665	20.798
3.9634	20.556
3.9604	20.457
3.9574	20.458
3.9544	20.516
3.9513	20.604
3.9483	20.705
3.9453	20.817
3.9423	20.941
3.9393	21.078
3.9363	21.226
3.9333	21.380
3.9304	21.535
3.9274	21.691
3.9244	21.857
3.9214	22.054
3.9185	22.307
3.9155	22.642
3.9126	23.070
3.9096	23.587
3.9067	24.163
3.9037	24.753
3.9008	25.305
3.8979	25.774
3.8949	26.135
3.8920	26.385
3.8891	26.547
3.8862	26.657
3.8833	26.753
3.8804	26.865
3.8775	27.009
3.8746	27.193
3.8717	27.426
3.8688	27.721
3.8659	28.107
3.8630	28.616
3.8601	29.267
3.8573	30.056
3.8544	30.940
3.8515	31.844
3.8487	32.673
3.8458	33.337
3.8430	33.773
3.8401	33.957
3.8373	33.898
3.8344	33.638
3.8316	33.224
3.8288	32.699
3.8259	32.096
3.8231	31.437
3.8203	30.745
3.8175	30.048
3.8147	29.391
3.8119	28.826
3.8091	28.408
3.8063	28.182
3.8035	28.168
3.8007	28.362
3.7979	28.737
3.7951	29.251
3.7924	29.861
3.7896	30.528
3.7868	31.222
3.7841	31.920
3.7813	32.612
3.7785	33.289
3.7758	33.950
3.7730	34.600
3.7703	35.244
3.7676	35.890
3.7648	36.544
3.7621	37.211
3.7594	37.890
3.7566	38.574
3.7539	39.251
3.7512	39.909
3.7485	40.528
3.7458	41.093
3.7431	41.590
3.7404	42.010
3.7377	42.353
3.7350	42.624
3.7323	42.835
3.7296	42.998
3.7269	43.128
3.7242	43.234
3.7216	43.326
3.7189	43.408
3.7162	43.483
3.7136	43.554
3.7109	43.621
3.7083	43.685
3.7056	43.746
3.7030	43.804
3.7003	43.862
3.6977	43.917
3.6950	43.971
3.6924	44.020
3.6898	44.061
3.6872	44.090
3.6845	44.105
3.6819	44.108
3.6793	44.102
3.6767	44.089
3.6741	44.072
3.6715	44.053
3.6689	44.030
3.6663	44.002
3.6637	43.969
3.6611	43.932
3.6585	43.895
3.6560	43.859
3.6534	43.825
3.6508	43.791
3.6482	43.754
3.6457	43.711
3.6431	43.663
3.6406	43.613
3.6380	43.561
3.6355	43.508
3.6329	43.453
3.6304	43.392
3.6278	43.325
3.6253	43.249
3.6227	43.167
3.6202	43.081
3.6177	42.994
3.6152	42.908
3.6127	42.824
3.6101	42.742
3.6076	42.662
3.6051	42.582
3.6026	42.500
3.6001	42.417
3.5976	42.332
3.5951	42.246
3.5926	42.160
3.5901	42.074
3.5876	41.986
3.5852	41.895
3.5827	41.798
3.5802	41.691
3.5777	41.576
3.5753	41.451
3.5728	41.317
3.5704	41.171
3.5679	41.009
3.5654	40.823
3.5630	40.606
3.5605	40.356
3.5581	40.080
3.5557	39.791
3.5532	39.512
3.5508	39.267
3.5484	39.071
3.5459	38.925
3.5435	38.816
3.5411	38.718
3.5387	38.602
3.5363	38.444
3.5338	38.232
3.5314	37.965
3.5290	37.645
3.5266	37.281
3.5242	36.874
3.5218	36.423
3.5195	35.923
3.5171	35.374
3.5147	34.776
3.5123	34.132
3.5099	33.449
3.5075	32.732
3.5052	31.991
3.5028	31.233
3.5004	30.468
3.4981	29.714
3.4957	28.987
3.4934	28.304
3.4910	27.674
3.4887	27.106
3.4863	26.597
3.4840	26.139
3.4816	25.724
3.4793	25.345
3.4770	24.994
3.4746	24.668
3.4723	24.365
3.4700	24.082
3.4677	23.816
3.4653	23.563
3.4630	23.323
3.4607	23.098
3.4584	22.892
3.4561	22.717
3.4538	22.585
3.4515	22.511
3.4492	22.509
3.4469	22.593
3.4446	22.768
3.4423	23.032
3.4400	23.374
3.4378	23.770
3.4355	24.189
3.4332	24.600
3.4309	24.976
3.4287	25.299
3.4264	25.561
3.4241	25.767
3.4219	25.923
3.4196	26.041
3.4174	26.129
3.4151	26.195
3.4129	26.246
3.4106	26.286
3.4084	26.321
3.4061	26.356
3.4039	26.393
3.4017	26.431
3.3994	26.469
3.3972	26.503
3.3950	26.534
3.3928	26.565
3.3906	26.605
3.3883	26.665
3.3861	26.750
3.3839	26.856
3.3817	26.969
3.3795	27.064
3.3773	27.116
3.3751	27.105
3.3729	27.023
3.3707	26.874
3.3685	26.673
3.3663	26.441
3.3641	26.197
3.3620	25.956
3.3598	25.727
3.3576	25.511
3.3554	25.308
3.3533	25.113
3.3511	24.927
3.3489	24.751
3.3468	24.590
3.3446	24.451
3.3425	24.339
3.3403	24.256
3.3382	24.201
3.3360	24.167
3.3339	24.140
3.3317	24.108
3.3296	24.055
3.3274	23.970
3.3253	23.847
3.3232	23.683
3.3210	23.482
3.3189	23.257
3.3168	23.022
3.3147	22.800
3.3126	22.618
3.3104	22.511
3.3083	22.516
3.3062	22.673
3.3041	23.010
3.3020	23.535
3.2999	24.226
3.2978	25.029
3.2957	25.871
3.2936	26.670
3.2915	27.362
3.2894	27.910
3.2874	28.309
3.2853	28.579
3.2832	28.754
3.2811	28.868
3.2790	28.947
3.2770	29.006
3.2749	29.050
3.2728	29.081
3.2708	29.099
3.2687	29.105
3.2666	29.103
3.2646	29.097
3.2625	29.090
3.2605	29.083
3.2584	29.074
3.2564	29.062
3.2543	29.044
3.2523	29.020
3.2503	28.991
3.2482	28.957
3.2462	28.920
3.2442	28.881
3.2421	28.841
3.2401	28.800
3.2381	28.756
3.2361	28.709
3.2340	28.658
3.2320	28.602
3.2300	28.541
3.2280	28.475
3.2260	28.406
3.2240	28.337
3.2220	28.268
3.2200	28.202
3.2180	28.139
3.2160	28.076
3.2140	28.013
3.2120	27.947
3.2100	27.876
3.2080	27.798
3.2060	27.714
3.2040	27.625
3.2021	27.534
3.2001	27.441
3.1981	27.352
3.1961	27.267
3.1942	27.187
3.1922	27.111
3.1902	27.036
3.1883	26.962
3.1863	26.887
3.1844	26.812
3.1824	26.738
3.1805	26.664
3.1785	26.590
3.1766	26.516
3.1746	26.444
3.1727	26.374
3.1707	26.307
3.1688	26.243
3.1669	26.178
3.1649	26.111
3.1630	26.038
3.1611	25.961
3.1591	25.882
3.1572	25.806
3.1553	25.733
3.1534	25.667
3.1515	25.602
3.1495	25.536
3.1476	25.462
3.1457	25.379
3.1438	25.289
3.1419	25.197
3.1400	25.107
3.1381	25.027
3.1362	24.957
3.1343	24.896
3.1324	24.838
3.1305	24.781
3.1286	24.723
3.1268	24.663
3.1249	24.603
3.1230	24.545
3.1211	24.487
3.1192	24.428
3.1174	24.367
3.1155	24.303
3.1136	24.238
3.1117	24.174
3.1099	24.113
3.1080	24.055
3.1061	24.001
3.1043	23.949
3.1024	23.898
3.1006	23.846
3.0987	23.792
3.0969	23.737
3.0950	23.677
3.0932	23.614
3.0913	23.550
3.0895	23.488
3.0876	23.432
3.0858	23.385
3.0840	23.349
3.0821	23.321
3.0803	23.299
3.0785	23.279
3.0766	23.260
3.0748	23.239
3.0730	23.214
3.0712	23.186
3.0694	23.158
3.0675	23.130
3.0657	23.105
3.0639	23.083
3.0621	23.066
3.0603	23.051
3.0585	23.032
3.0567	23.010
3.0549	22.983
3.0531	22.950
3.0513	22.913
3.0495	22.877
3.0477	22.846
3.0459	22.820
3.0441	22.800
3.0423	22.783
3.0406	22.767
3.0388	22.752
3.0370	22.734
3.0352	22.713
3.0334	22.690
3.0317	22.662
3.0299	22.628
3.0281	22.589
3.0264	22.547
3.0246	22.506
3.0228	22.467
3.0211	22.431
3.0193	22.396
3.0176	22.360
3.0158	22.320
3.0140	22.276
3.0123	22.230
3.0105	22.184
3.0088	22.140
3.0070	22.097
3.0053	22.053
3.0036	22.009
3.0018	21.963
3.0001	21.917
2.9984	21.874
2.9966	21.833
2.9949	21.794
2.9932	21.756
2.9914	21.718
2.9897	21.679
2.9880	21.640
2.9863	21.603
2.9845	21.567
2.9828	21.531
2.9811	21.495
2.9794	21.458
2.9777	21.419
2.9760	21.376
2.9743	21.332
2.9726	21.285
2.9709	21.235
2.9692	21.181
2.9675	21.129
2.9658	21.079
2.9641	21.034
2.9624	20.992
2.9607	20.954
2.9590	20.916
2.9573	20.877
2.9556	20.836
2.9539	20.797
2.9523	20.763
2.9506	20.736
2.9489	20.720
2.9472	20.711
2.9455	20.703
2.9439	20.690
2.9422	20.666
2.9405	20.630
2.9389	20.588
2.9372	20.548
2.9355	20.521
2.9339	20.509
2.9322	20.509
2.9306	20.514
2.9289	20.516
2.9272	20.510
2.9256	20.496
2.9239	20.481
2.9223	20.474
2.9207	20.477
2.9190	20.489
2.9174	20.508
2.9157	20.531
2.9141	20.553
2.9124	20.574
2.9108	20.594
2.9092	20.614
2.9075	20.633
2.9059	20.651
2.9043	20.670
2.9027	20.693
2.9010	20.718
2.8994	20.743
2.8978	20.767
2.8962	20.787
2.8946	20.804
2.8929	20.820
2.8913	20.836
2.8897	20.856
2.8881	20.880
2.8865	20.903
2.8849	20.926
2.8833	20.948
2.8817	20.971
2.8801	20.996
2.8785	21.026
2.8769	21.060
2.8753	21.096
2.8737	21.131
2.8721	21.163
2.8705	21.192
2.8689	21.220
2.8673	21.246
2.8658	21.268
2.8642	21.288
2.8626	21.301
2.8610	21.306
2.8594	21.300
2.8579	21.288
2.8563	21.271
2.8547	21.251
2.8531	21.235
2.8516	21.222
2.8500	21.208
2.8484	21.188
2.8469	21.154
2.8453	21.104
2.8437	21.035
2.8422	20.950
2.8406	20.854
2.8391	20.752
2.8375	20.643
2.8360	20.528
2.8344	20.406
2.8329	20.275
2.8313	20.136
2.8298	19.989
2.8282	19.835
2.8267	19.675
2.8252	19.505
2.8236	19.324
2.8221	19.133
2.8205	18.932
2.8190	18.722
2.8175	18.508
2.8159	18.294
2.8144	18.078
2.8129	17.858
2.8114	17.628
2.8098	17.383
2.8083	17.119
2.8068	16.834
2.8053	16.530
2.8038	16.212
2.8022	15.881
2.8007	15.538
2.7992	15.183
2.7977	14.815
2.7962	14.435
2.7947	14.042
2.7932	13.643
2.7917	13.240
2.7902	12.837
2.7887	12.439
2.7872	12.049
2.7857	11.668
2.7842	11.299
2.7827	10.943
2.7812	10.603
2.7797	10.278
2.7782	9.9688
2.7767	9.6751
2.7752	9.3983
2.7738	9.1366
2.7723	8.8889
2.7708	8.6563
2.7693	8.4401
2.7678	8.2410
2.7664	8.0605
2.7649	7.9033
2.7634	7.7728
2.7619	7.6707
2.7605	7.5992
2.7590	7.5620
2.7575	7.5625
2.7561	7.6013
2.7546	7.6788
2.7531	7.7922
2.7517	7.9348
2.7502	8.0948
2.7488	8.2618
2.7473	8.4306
2.7458	8.5997
2.7444	8.7724
2.7429	8.9561
2.7415	9.1589
2.7400	9.3848
2.7386	9.6356
2.7371	9.9145
2.7357	10.226
2.7343	10.576
2.7328	10.975
2.7314	11.432
2.7299	11.955
2.7285	12.549
2.7271	13.222
2.7256	13.980
2.7242	14.832
2.7228	15.783
2.7213	16.835
2.7199	17.978
2.7185	19.191
2.7171	20.446
2.7156	21.714
2.7142	22.970
2.7128	24.197
2.7114	25.387
2.7100	26.536
2.7085	27.643
2.7071	28.709
2.7057	29.736
2.7043	30.726
2.7029	31.685
2.7015	32.615
2.7001	33.516
2.6987	34.387
2.6973	35.227
2.6959	36.037
2.6945	36.816
2.6931	37.560
2.6917	38.263
2.6903	38.918
2.6889	39.515
2.6875	40.047
2.6861	40.513
2.6847	40.916
2.6833	41.260
2.6819	41.554
2.6805	41.806
2.6791	42.028
2.6778	42.225
2.6764	42.403
2.6750	42.555
2.6736	42.681
2.6722	42.785
2.6709	42.872
2.6695	42.957
2.6681	43.058
2.6667	43.190
2.6654	43.355
2.6640	43.535
2.6626	43.715
2.6613	43.878
2.6599	44.010
2.6585	44.108
2.6572	44.180
2.6558	44.238
2.6545	44.291
2.6531	44.342
2.6517	44.394
2.6504	44.444
2.6490	44.489
2.6477	44.528
2.6463	44.561
2.6450	44.588
2.6436	44.612
2.6423	44.636
2.6409	44.658
2.6396	44.675
2.6382	44.685
2.6369	44.683
2.6356	44.666
2.6342	44.633
2.6329	44.593
2.6315	44.559
2.6302	44.538
2.6289	44.536
2.6275	44.553
2.6262	44.577
2.6249	44.593
2.6236	44.590
2.6222	44.572
2.6209	44.544
2.6196	44.521
2.6183	44.516
2.6169	44.535
2.6156	44.572
2.6143	44.611
2.6130	44.637
2.6117	44.642
2.6103	44.621
2.6090	44.581
2.6077	44.542
2.6064	44.527
2.6051	44.544
2.6038	44.591
2.6025	44.653
2.6012	44.703
2.5999	44.716
2.5986	44.685
2.5973	44.629
2.5960	44.583
2.5947	44.572
2.5934	44.607
2.5921	44.677
2.5908	44.758
2.5895	44.821
2.5882	44.850
2.5869	44.855
2.5856	44.856
2.5843	44.867
2.5830	44.893
2.5817	44.927
2.5805	44.956
2.5792	44.970
2.5779	44.964
2.5766	44.946
2.5753	44.931
2.5741	44.928
2.5728	44.940
2.5715	44.964
2.5702	44.989
2.5690	45.003
2.5677	44.996
2.5664	44.968
2.5651	44.928
2.5639	44.891
2.5626	44.871
2.5613	44.874
2.5601	44.895
2.5588	44.922
2.5575	44.941
2.5563	44.941
2.5550	44.924
2.5538	44.898
2.5525	44.872
2.5513	44.851
2.5500	44.833
2.5487	44.813
2.5475	44.785
2.5462	44.747
2.5450	44.699
2.5437	44.646
2.5425	44.591
2.5413	44.534
2.5400	44.473
2.5388	44.408
2.5375	44.335
2.5363	44.256
2.5350	44.175
2.5338	44.096
2.5326	44.023
2.5313	43.958
2.5301	43.901
2.5289	43.849
2.5276	43.798
2.5264	43.746
2.5252	43.692
2.5239	43.639
2.5227	43.588
2.5215	43.541
2.5202	43.498
2.5190	43.458
2.5178	43.422
2.5166	43.388
2.5154	43.357
2.5141	43.330
2.5129	43.310
2.5117	43.296
2.5105	43.289
2.5093	43.288
2.5081	43.292
2.5068	43.300
2.5056	43.309
2.5044	43.319
2.5032	43.328
2.5020	43.338
2.5008	43.345
2.4996	43.350
2.4984	43.351
2.4972	43.350
2.4960	43.350
2.4948	43.352
2.4936	43.358
2.4924	43.370
2.4912	43.386
2.4900	43.404
2.4888	43.420
2.4876	43.433
2.4864	43.443
2.4852	43.450
2.4840	43.456
2.4828	43.463
2.4816	43.472
2.4805	43.482
2.4793	43.489
2.4781	43.490
2.4769	43.483
2.4757	43.467
2.4745	43.446
2.4734	43.422
2.4722	43.400
2.4710	43.381
2.4698	43.366
2.4686	43.354
2.4675	43.344
2.4663	43.337
2.4651	43.330
2.4640	43.325
2.4628	43.322
2.4616	43.318
2.4604	43.313
2.4593	43.304
2.4581	43.293
2.4569	43.282
2.4558	43.275
2.4546	43.274
2.4535	43.280
2.4523	43.289
2.4511	43.298
2.4500	43.304
2.4488	43.306
2.4477	43.305
2.4465	43.306
2.4454	43.310
2.4442	43.317
2.4431	43.324
2.4419	43.333
2.4408	43.343
2.4396	43.355
2.4385	43.373
2.4373	43.398
2.4362	43.428
2.4350	43.460
2.4339	43.491
2.4327	43.518
2.4316	43.540
2.4305	43.560
2.4293	43.581
2.4282	43.605
2.4270	43.633
2.4259	43.665
2.4248	43.701
2.4236	43.738
2.4225	43.773
2.4214	43.807
2.4202	43.837
2.4191	43.864
2.4180	43.888
2.4169	43.910
2.4157	43.930
2.4146	43.949
2.4135	43.966
2.4124	43.980
2.4112	43.992
2.4101	44.002
2.4090	44.010
2.4079	44.017
2.4068	44.028
2.4056	44.043
2.4045	44.063
2.4034	44.086
2.4023	44.108
2.4012	44.125
2.4001	44.134
2.3990	44.136
2.3979	44.133
2.3967	44.127
2.3956	44.120
2.3945	44.113
2.3934	44.108
2.3923	44.102
2.3912	44.092
2.3901	44.081
2.3890	44.066
2.3879	44.049
2.3868	44.032
2.3857	44.017
2.3846	44.008
2.3835	44.004
2.3824	44.006
2.3813	44.011
2.3802	44.016
2.3791	44.020
2.3781	44.022
2.3770	44.021
2.3759	44.019
2.3748	44.016
2.3737	44.013
2.3726	44.010
2.3715	44.004
2.3704	43.995
2.3694	43.983
2.3683	43.969
2.3672	43.956
2.3661	43.946
2.3650	43.938
2.3640	43.931
2.3629	43.923
2.3618	43.912
2.3607	43.893
2.3597	43.867
2.3586	43.836
2.3575	43.801
2.3564	43.765
2.3554	43.731
2.3543	43.699
2.3532	43.670
2.3522	43.642
2.3511	43.614
2.3500	43.586
2.3490	43.560
2.3479	43.537
2.3468	43.518
2.3458	43.504
2.3447	43.494
2.3436	43.487
2.3426	43.480
2.3415	43.474
2.3405	43.470
2.3394	43.470
2.3384	43.473
2.3373	43.479
2.3363	43.489
2.3352	43.501
2.3342	43.511
2.3331	43.521
2.3321	43.531
2.3310	43.541
2.3300	43.551
2.3289	43.563
2.3279	43.576
2.3268	43.589
2.3258	43.601
2.3247	43.617
2.3237	43.638
2.3226	43.667
2.3216	43.702
2.3206	43.739
2.3195	43.775
2.3185	43.802
2.3175	43.821
2.3164	43.836
2.3154	43.853
2.3144	43.880
2.3133	43.919
2.3123	43.967
2.3113	44.017
2.3102	44.061
2.3092	44.092
2.3082	44.107
2.3071	44.111
2.3061	44.109
2.3051	44.108
2.3041	44.113
2.3030	44.123
2.3020	44.134
2.3010	44.144
2.3000	44.149
2.2990	44.150
2.2979	44.150
2.2969	44.156
2.2959	44.169
2.2949	44.189
2.2939	44.212
2.2929	44.232
2.2918	44.245
2.2908	44.250
2.2898	44.252
2.2888	44.257
2.2878	44.270
2.2868	44.291
2.2858	44.314
2.2848	44.335
2.2838	44.348
2.2828	44.352
2.2818	44.347
2.2808	44.338
2.2798	44.329
2.2787	44.320
2.2777	44.313
2.2767	44.311
2.2757	44.312
2.2747	44.313
2.2738	44.311
2.2728	44.305
2.2718	44.294
2.2708	44.276
2.2698	44.256
2.2688	44.238
2.2678	44.223
2.2668	44.210
2.2658	44.201
2.2648	44.194
2.2638	44.184
2.2628	44.166
2.2618	44.139
2.2609	44.102
2.2599	44.056
2.2589	44.012
2.2579	43.978
2.2569	43.960
2.2559	43.956
2.2550	43.960
2.2540	43.964
2.2530	43.959
2.2520	43.943
2.2510	43.918
2.2501	43.889
2.2491	43.858
2.2481	43.829
2.2471	43.800
2.2462	43.771
2.2452	43.741
2.2442	43.709
2.2433	43.679
2.2423	43.652
2.2413	43.630
2.2403	43.611
2.2394	43.595
2.2384	43.579
2.2374	43.561
2.2365	43.539
2.2355	43.513
2.2345	43.483
2.2336	43.451
2.2326	43.415
2.2317	43.377
2.2307	43.338
2.2297	43.298
2.2288	43.257
2.2278	43.214
2.2269	43.167
2.2259	43.113
2.2250	43.054
2.2240	42.994
2.2231	42.936
2.2221	42.885
2.2211	42.841
2.2202	42.804
2.2192	42.768
2.2183	42.731
2.2173	42.693
2.2164	42.655
2.2155	42.616
2.2145	42.575
2.2136	42.534
2.2126	42.490
2.2117	42.446
2.2107	42.407
2.2098	42.376
2.2088	42.358
2.2079	42.350
2.2070	42.354
2.2060	42.363
2.2051	42.374
2.2041	42.380
2.2032	42.380
2.2023	42.373
2.2013	42.362
2.2004	42.353
2.1995	42.357
2.1985	42.381
2.1976	42.426
2.1967	42.486
2.1957	42.556
2.1948	42.625
2.1939	42.681
2.1930	42.729
2.1920	42.773
2.1911	42.821
2.1902	42.878
2.1893	42.945
2.1883	43.018
2.1874	43.087
2.1865	43.144
2.1856	43.189
2.1846	43.225
2.1837	43.258
2.1828	43.296
2.1819	43.343
2.1810	43.399
2.1800	43.459
2.1791	43.515
2.1782	43.561
2.1773	43.596
2.1764	43.625
2.1755	43.653
2.1746	43.686
2.1736	43.726
2.1727	43.766
2.1718	43.799
2.1709	43.818
2.1700	43.826
2.1691	43.828
2.1682	43.834
2.1673	43.850
2.1664	43.878
2.1655	43.912
2.1646	43.944
2.1637	43.968
2.1628	43.985
2.1619	43.996
2.1610	44.002
2.1601	44.007
2.1592	44.013
2.1583	44.019
2.1574	44.025
2.1565	44.029
2.1556	44.030
2.1547	44.027
2.1538	44.020
2.1529	44.012
2.1520	44.006
2.1511	44.003
2.1502	44.004
2.1493	44.004
2.1484	43.999
2.1475	43.989
2.1466	43.976
2.1458	43.969
2.1449	43.976
2.1440	43.995
2.1431	44.020
2.1422	44.040
2.1413	44.045
2.1404	44.031
2.1396	44.005
2.1387	43.978
2.1378	43.961
2.1369	43.955
2.1360	43.958
2.1352	43.960
2.1343	43.954
2.1334	43.938
2.1325	43.914
2.1316	43.891
2.1308	43.874
2.1299	43.865
2.1290	43.863
2.1281	43.865
2.1273	43.868
2.1264	43.868
2.1255	43.862
2.1247	43.850
2.1238	43.833
2.1229	43.813
2.1220	43.792
2.1212	43.775
2.1203	43.770
2.1194	43.778
2.1186	43.798
2.1177	43.824
2.1168	43.852
2.1160	43.874
2.1151	43.884
2.1143	43.880
2.1134	43.867
2.1125	43.847
2.1117	43.824
2.1108	43.801
2.1100	43.782
2.1091	43.769
2.1082	43.758
2.1074	43.748
2.1065	43.739
2.1057	43.732
2.1048	43.726
2.1040	43.722
2.1031	43.721
2.1023	43.723
2.1014	43.727
2.1005	43.732
2.0997	43.737
2.0988	43.737
2.0980	43.732
2.0971	43.722
2.0963	43.712
2.0955	43.704
2.0946	43.701
2.0938	43.704
2.0929	43.709
2.0921	43.709
2.0912	43.701
2.0904	43.686
2.0895	43.668
2.0887	43.652
2.0879	43.641
2.0870	43.638
2.0862	43.642
2.0853	43.644
2.0845	43.656
2.0837	43.667
2.0828	43.664
2.0820	43.692
2.0812	43.635
2.0803	43.572
2.0795	43.567
2.0760	43.567
2.0720	43.761
2.0680	43.785
2.0640	43.389
2.0600	43.212
2.0560	43.629
2.0520	43.629
2.0480	43.196
2.0440	43.289
2.0400	43.282
2.0360	42.783
2.0320	42.599
2.0280	42.448
2.0240	42.482
2.0200	42.594
2.0160	42.594
2.0120	42.411
2.0080	42.225
2.0040	42.060
2.0000	42.114
1.9960	41.795
1.9920	41.568
1.9880	41.368
1.9840	41.332
1.9800	40.936
1.9760	41.007
1.9720	40.972
1.9680	40.936
1.9640	41.062
1.9600	40.865
1.9560	40.615
1.9520	40.933
1.9480	40.843
1.9440	40.626
1.9400	40.354
1.9360	40.117
1.9320	39.838
1.9280	39.682
1.9240	39.595
1.9200	39.388
1.9160	39.388
1.9120	39.283
1.9080	39.550
1.9040	39.942
1.9000	40.296
1.8960	40.573
1.8920	40.772
1.8880	40.505
1.8840	40.122
1.8800	39.971
1.8760	40.128
1.8720	39.985
1.8680	39.833
1.8640	40.194
1.8600	40.784
1.8560	41.118
1.8520	41.320
1.8480	41.016
1.8440	40.325
1.8400	40.142
1.8360	40.201
1.8320	40.619
1.8280	40.579
1.8240	40.464
1.8200	40.420
1.8160	39.947
1.8120	39.975
1.8080	40.131
1.8040	39.913
1.8000	39.689
1.7960	39.689
1.7920	39.656
1.7880	39.488
1.7840	39.500
1.7800	39.567
1.7760	39.689
1.7720	39.580
1.7680	39.314
1.7640	39.215
1.7600	39.093
1.7560	39.060
1.7520	39.148
1.7480	39.049
1.7440	39.258
1.7400	39.424
1.7360	39.358
1.7320	39.424
1.7280	39.525
1.7240	39.559
1.7200	39.626
1.7160	39.427
1.7120	39.271
1.7080	39.071
1.7040	39.226
1.7000	39.038
1.6960	39.005
1.6920	39.126
1.6880	39.126
1.6840	38.872
1.6800	38.950
1.6760	38.917
1.6720	38.884
1.6680	38.818
1.6640	38.630
1.6600	38.706
1.6560	38.542
1.6520	38.575
1.6480	38.477
1.6440	38.477
1.6400	38.640
1.6360	38.575
1.6320	38.454
1.6280	38.561
1.6240	38.463
1.6200	38.278
1.6160	38.213
1.6120	38.278
1.6080	38.366
1.6040	38.366
1.6000	38.301
1.5960	38.301
1.5920	38.529
1.5880	38.505
1.5840	38.296
1.5800	38.263
1.5760	38.175
1.5720	38.166
1.5680	38.343
1.5640	38.463
1.5600	37.946
1.5560	38.037
1.5520	38.155
1.5480	38.343
1.5440	38.155
1.5400	38.027
1.5360	37.931
1.5320	37.963
1.5280	37.756
1.5240	37.542
1.5200	37.787
1.5160	37.858
1.5120	37.731
1.5080	37.518
1.5040	37.274
1.5000	37.173
1.4960	37.242
1.4920	37.696
1.4880	38.229
1.4840	37.788
1.4800	37.802
1.4760	37.802
1.4720	37.770
1.4680	37.707
1.4640	37.629
1.4600	37.795
1.4560	37.774
1.4520	37.623
1.4480	37.566
1.4440	37.354
1.4400	37.040
1.4360	36.953
1.4320	37.091
1.4280	37.138
1.4240	37.138
1.4200	37.107
1.4160	36.829
1.4120	36.418
1.4080	36.126
1.4040	36.277
1.4000	36.266
1.3960	36.635
1.3920	36.912
1.3880	37.097
1.3840	37.424
1.3800	37.597
1.3760	37.686
1.3720	38.347
1.3680	38.617
1.3640	38.136
1.3600	37.367
1.3560	37.695
1.3520	38.525
1.3480	38.812
1.3440	38.949
1.3400	38.341
1.3360	37.992
1.3320	37.569
1.3280	37.569
1.3240	37.637
1.3200	37.824
1.3160	37.887
1.3120	37.821
1.3080	37.902
1.3040	37.840
1.3000	37.777
1.2960	37.603
1.2920	37.609
1.2880	37.583
1.2840	37.496
1.2800	37.532
1.2760	37.512
1.2720	37.669
1.2680	37.941
1.2640	38.254
1.2600	38.360
1.2560	38.627
1.2520	38.702
1.2480	38.980
1.2440	38.980
1.2400	39.047
1.2360	39.113
1.2320	38.916
1.2280	38.449
1.2240	38.541
1.2200	38.662
1.2160	38.930
1.2120	38.989
1.2080	39.098
1.2040	39.288
1.2000	38.867
1.1960	38.471
1.1920	38.489
1.1880	38.513
1.1840	38.506
1.1800	38.530
1.1760	38.554
1.1720	38.666
1.1680	38.482
1.1640	38.419
1.1600	38.571
1.1560	38.157
1.1520	38.307
1.1480	38.432
1.1440	38.897
1.1400	39.421
1.1360	39.886
1.1320	39.730
1.1280	39.909
1.1240	39.852
1.1200	39.872
1.1160	39.882
1.1120	39.819
1.1080	39.875
1.1040	40.020
1.1000	40.231
1.0960	40.175
1.0920	40.398
1.0880	40.185
1.0840	40.240
1.0800	40.141
1.0760	40.507
1.0720	40.496
1.0680	40.719
1.0640	40.551
1.0600	40.373
1.0560	40.373
1.0520	40.716
1.0480	40.606
1.0440	40.306
1.0400	40.395
1.0360	40.461
1.0320	41.028
1.0280	40.893
1.0240	40.927
1.0200	40.794
1.0160	40.861
1.0120	40.918
1.0080	40.805
1.0040	40.671
1.0000	40.549
0.99600	40.716
0.99200	40.906
0.98800	40.573
0.98400	40.384
0.98000	40.065
0.97600	40.230
0.97200	40.175
0.96800	39.855
0.96400	39.734
0.96000	39.678
0.95600	39.743
0.95200	39.403
0.94800	39.306
0.94400	39.291
0.94000	39.049
0.93600	38.961
0.93200	38.873
0.92800	38.513
0.92400	38.186
0.92000	38.160
0.91600	37.927
0.91200	37.823
0.90800	37.410
0.90400	37.476
0.90000	37.330
0.89600	37.269
0.89200	37.123
0.88800	36.947
0.88400	36.780
0.88000	36.844
0.87600	36.725
0.87200	36.490
0.86800	36.553
0.86400	36.586
0.86000	36.428
0.85600	36.398
0.85200	36.400
0.84800	36.140
0.84400	36.130
0.84000	36.111
0.83600	36.251
0.83200	36.230
0.82800	36.320
0.82400	36.219
0.82000	36.187
0.81600	36.097
0.81200	36.363
0.80800	36.341
0.80400	36.219
0.80000	36.130
0.79900	36.130
0.79800	36.130
0.79700	36.202
0.79600	36.059
0.79500	35.937
0.79400	35.904
0.79300	35.778
0.79200	35.744
0.79100	35.744
0.79000	35.940
0.78900	35.744
0.78800	35.718
0.78700	35.811
0.78600	35.845
0.78500	35.748
0.78400	35.845
0.78300	36.072
0.78200	35.811
0.78100	36.030
0.78000	35.938
0.77900	35.875
0.77800	35.781
0.77700	35.714
0.77600	35.455
0.77500	35.763
0.77400	35.515
0.77300	35.425
0.77200	35.648
0.77100	35.555
0.77000	35.458
0.76900	35.648
0.76800	35.548
0.76700	35.551
0.76600	35.738
0.76500	35.551
0.76400	35.391
0.76300	35.261
0.76200	35.033
0.76100	35.090
0.76000	35.132
0.75900	35.391
0.75800	35.328
0.75700	35.264
0.75600	35.101
0.75500	35.165
0.75400	35.101
0.75300	35.134
0.75200	35.068
0.75100	34.842
0.75000	34.778
0.74900	34.778
0.74800	34.584
0.74700	34.837
0.74600	34.747
0.74500	34.675
0.74400	34.837
0.74300	34.482
0.74200	34.577
0.74100	34.645
0.74000	34.483
0.73900	34.288
0.73800	34.288
0.73700	34.224
0.73600	34.192
0.73500	33.998
0.73400	33.650
0.73300	33.869
0.73200	34.127
0.73100	33.965
0.73000	33.901
0.72900	33.900
0.72800	33.582
0.72700	33.416
0.72600	32.915
0.72500	33.319
0.72400	33.416
0.72300	33.228
0.72200	33.228
0.72100	33.191
0.72000	32.900
0.71900	32.803
0.71800	32.442
0.71700	32.508
0.71600	32.228
0.71500	32.411
0.71400	32.529
0.71300	32.693
0.71200	32.470
0.71100	31.745
0.71000	31.842
0.70900	31.723
0.70800	31.634
0.70700	31.768
0.70600	31.953
0.70500	31.977
0.70400	31.684
0.70300	31.437
0.70200	31.526
0.70100	31.591
0.70000	31.561
0.69900	31.505
0.69800	31.670
0.69700	31.581
0.69600	31.301
0.69500	31.209
0.69400	31.148
0.69300	30.767
0.69200	30.667
0.69100	30.757
0.69000	30.627
0.68900	30.676
0.68800	30.587
0.68700	30.557
0.68600	30.557
0.68500	30.647
0.68400	30.287
0.68300	30.245
0.68200	30.133
0.68100	29.773
0.68000	29.786
0.67900	29.699
0.67800	29.499
0.67700	29.688
0.67600	29.630
0.67500	29.544
0.67400	29.573
0.67300	29.443
0.67200	29.000
0.67100	29.271
0.67000	29.243
0.66900	29.157
0.66800	29.387
0.66700	29.343
0.66600	29.084
0.66500	28.741
0.66400	28.485
0.66300	28.596
0.66200	28.709
0.66100	28.681
0.66000	28.395
0.65900	28.580
0.65800	28.665
0.65700	28.548
0.65600	28.390
0.65500	28.076
0.65400	27.884
0.65300	27.856
0.65200	27.735
0.65100	27.864
0.65000	27.781
0.64900	27.774
0.64800	27.673
0.64700	27.755
0.64600	27.580
0.64500	27.553
0.64400	27.270
0.64300	27.270
0.64200	27.223
0.64100	27.277
0.64000	27.277
0.63900	27.175
0.63800	27.073
0.63700	27.021
0.63600	26.893
0.63500	26.867
0.63400	26.994
0.63300	26.893
0.63200	26.718
0.63100	26.564
0.63000	26.722
0.62900	26.722
0.62800	26.519
0.62700	26.238
0.62600	26.238
0.62500	26.238
0.62400	26.163
0.62300	26.165
0.62200	26.165
0.62100	26.038
0.62000	25.759
0.61900	25.657
0.61800	25.683
0.61700	25.632
0.61600	25.505
0.61500	25.556
0.61400	25.455
0.61300	25.303
0.61200	25.025
0.61100	25.025
0.61000	24.924
0.60900	24.823
0.60800	24.722
0.60700	24.746
0.60600	24.491
0.60500	24.414
0.60400	24.312
0.60300	24.054
0.60200	24.049
0.60100	24.043
0.60000	23.971
0.59900	23.845
0.59800	23.735
0.59700	23.577
0.59600	23.569
0.59500	23.330
0.59400	23.179
0.59300	23.099
0.59200	22.950
0.59100	22.640
0.59000	22.572
0.58900	22.456
0.58800	22.169
0.58700	22.021
0.58600	21.918
0.58500	21.543
0.58400	21.402
0.58300	21.156
0.58200	20.823
0.58100	20.825
0.58000	20.680
0.57900	20.411
0.57800	20.267
0.57700	19.958
0.57600	19.648
0.57500	19.545
0.57400	19.175
0.57300	19.128
0.57200	18.876
0.57100	18.710
0.57000	18.442
0.56900	18.221
0.56800	17.798
0.56700	17.696
0.56600	17.612
0.56500	17.307
0.56400	17.104
0.56300	16.682
0.56200	16.479
0.56100	16.105
0.56000	16.051
0.55900	15.093
0.55800	15.442
0.55700	15.303
0.55600	15.120
0.55500	14.870
0.55400	14.580
0.55300	14.497
0.55200	14.451
0.55100	14.241
0.55000	14.320
0.54900	14.259
0.54800	14.160
0.54700	13.967
0.54600	13.948
0.54500	13.743
0.54400	13.437
0.54300	13.499
0.54200	13.413
0.54100	13.391
0.54000	13.104
0.53900	13.079
0.53800	13.030
0.53700	12.931
0.53600	12.881
0.53500	12.881
0.53400	12.918
0.53300	12.869
0.53200	12.819
0.53100	12.733
0.53000	12.571
0.52900	12.484
0.52800	12.496
0.52700	12.659
0.52600	12.326
0.52500	12.273
0.52400	12.232
0.52300	12.215
0.52200	12.204
0.52100	12.227
0.52000	12.186
0.51900	12.344
0.51800	12.041
0.51700	12.129
0.51600	12.285
0.51500	12.105
0.51400	11.963
0.51300	12.204
0.51200	12.175
0.51100	12.106
0.51000	11.977
0.50900	12.098
0.50800	11.813
0.50700	11.813
0.50600	11.748
0.50500	11.615
0.50400	11.647
0.50300	11.974
0.50200	12.105
0.50100	11.615
0.50000	11.527
0.49900	11.548
0.49800	11.506
0.49700	11.548
0.49600	11.409
0.49500	11.737
0.49400	11.573
0.49300	11.394
0.49200	11.562
0.49100	11.310
0.49000	11.341
0.48900	11.388
0.48800	11.378
0.48700	11.357
0.48600	11.173
0.48500	11.271
0.48400	11.368
0.48300	11.213
0.48200	11.283
0.48100	11.243
0.48000	11.213
0.47900	11.184
0.47800	10.930
0.47700	10.930
0.47600	10.949
0.47500	10.940
0.47400	10.930
0.47300	11.000
0.47200	11.000
0.47100	10.922
0.47000	11.002
0.46900	10.779
0.46800	10.877
0.46700	10.797
0.46600	10.779
0.46500	10.750
0.46400	10.752
0.46300	10.932
0.46200	10.701
0.46100	10.710
0.46000	10.595
0.45900	10.498
0.45800	10.662
0.45700	10.491
0.45600	10.543
0.45500	10.320
0.45400	10.433
0.45300	10.474
0.45200	10.286
0.45100	10.124
0.45000	10.265
0.44900	10.359
0.44800	10.359
0.44700	10.370
0.44600	10.168
0.44500	10.128
0.44400	9.9185
0.44300	9.9465
0.44200	9.8904
0.44100	9.8031
0.44000	10.041
0.43900	9.8881
0.43800	9.9330
0.43700	9.9707
0.43600	9.9913
0.43500	9.8847
0.43400	9.7959
0.43300	9.8104
0.43200	9.7923
0.43100	9.8994
0.43000	9.9103
0.42900	9.8497
0.42800	9.5231
0.42700	9.8239
0.42600	9.7060
0.42500	9.4709
0.42400	9.4865
0.42300	9.6274
0.42200	9.5943
0.42100	9.4079
0.42000	9.6675
0.41900	9.6164
0.41800	9.5927
0.41700	9.5927
0.41600	9.4888
0.41500	9.5927
0.41400	9.4909
0.41300	9.1424
0.41200	9.4540
0.41100	9.4766
0.41000	9.4410
0.40900	9.1168
0.40800	9.1388
0.40700	9.3629
0.40600	9.3629
0.40500	9.2606
0.40400	9.3659
0.40300	9.3701
0.40200	9.3686
0.40100	9.3589
0.40000	9.2771
0.0000	
