Name: Arkosic Sandstone 
Type:  Rocks
Class:  Sedimentary
Subclass: Sandstone 
Particle Size:  0 - 75 Micrometers
Sample No.:  sandstone.1
Owner:  JHU
Wavelength Range:  All
Origin:  Sample No. 362,  The Hunt and Salisbury Collection at the U.S. 
Geological Survey, Denver, Co.
Description: Sample is moderately sorted fine medium-grained rock 
with slight porosity. Well-rounded to subrounded quartz grains have 
fluid inclusions and ferruginous staining, and are cemented with 
overgrowths of chalcedony. A trace of microcline and regions of 
concentrated carbonaceous granules and/or opaques on the grains 
are present. Secondary carbonate crystallites exist in some pores.
Measurement:  Directional (10 Degree) Hemispherical Reflectance
First Column:  X
Second Column:  Y  
X Units:  Wavelength (micrometers)
Y Units:  Reflectance (percent)
First X Value: 14.0112
Last X Value:  0.4
Number of X Values: 2844
Additional Information:  None

14.983	6.7391
14.940	6.6957
14.897	6.6808
14.854	6.5472
14.812	6.3940
14.770	6.1248
14.728	5.7667
14.686	5.4247
14.645	4.9544
14.603	4.3939
14.562	3.8774
14.521	3.2818
14.481	2.6594
14.441	2.0930
14.400	1.7529
14.361	1.6265
14.321	1.7091
14.281	2.0800
14.242	2.6940
14.203	3.4322
14.164	4.1436
14.126	4.7948
14.087	5.4262
14.049	5.9583
14.011	6.4118
13.973	6.8279
13.936	7.1940
13.899	7.5412
13.861	7.8126
13.824	7.9982
13.788	8.1278
13.751	8.1867
13.715	8.2080
13.679	8.1815
13.643	8.1254
13.607	8.0880
13.571	8.0560
13.536	7.9828
13.500	7.9099
13.465	7.8478
13.430	7.7692
13.396	7.6352
13.361	7.4611
13.327	7.2674
13.293	7.0604
13.259	6.8011
13.225	6.5006
13.191	6.1522
13.158	5.7527
13.124	5.3085
13.091	4.8486
13.058	4.4083
13.026	4.0358
12.993	3.7199
12.960	3.4641
12.928	3.2695
12.896	3.1314
12.864	3.0317
12.832	2.9533
12.800	2.8522
12.769	2.7324
12.737	2.5953
12.706	2.4667
12.675	2.3772
12.644	2.3360
12.614	2.3324
12.583	2.3539
12.552	2.3539
12.522	2.3168
12.492	2.2204
12.462	2.0530
12.432	1.8121
12.402	1.5317
12.373	1.2771
12.343	1.1052
12.314	1.0297
12.285	1.0827
12.256	1.2629
12.227	1.5632
12.198	1.9372
12.169	2.3639
12.141	2.8432
12.113	3.3509
12.084	3.8523
12.056	4.3434
12.028	4.8178
12.000	5.2824
11.973	5.7262
11.945	6.1466
11.918	6.5359
11.890	6.9060
11.863	7.2563
11.836	7.5949
11.809	7.9300
11.782	8.2521
11.755	8.5649
11.729	8.8676
11.702	9.1243
11.676	9.3298
11.650	9.4738
11.624	9.5645
11.598	9.6223
11.572	9.6630
11.546	9.6988
11.520	9.7376
11.495	9.7525
11.469	9.7653
11.444	9.7980
11.419	9.8553
11.394	9.9223
11.369	9.9917
11.344	10.051
11.319	10.087
11.294	10.076
11.270	10.037
11.245	9.9832
11.221	9.9074
11.197	9.8075
11.173	9.7042
11.149	9.5953
11.125	9.4786
11.101	9.3485
11.077	9.2143
11.054	9.0736
11.030	8.9194
11.007	8.7733
10.983	8.6573
10.960	8.5739
10.937	8.5315
10.914	8.5173
10.891	8.5315
10.868	8.5540
10.846	8.5640
10.823	8.5670
10.800	8.5699
10.778	8.5739
10.755	8.5779
10.733	8.5566
10.711	8.5076
10.689	8.4477
10.667	8.3887
10.645	8.3397
10.623	8.3151
10.602	8.3172
10.580	8.3523
10.558	8.4034
10.537	8.4583
10.516	8.5145
10.494	8.5604
10.473	8.5720
10.452	8.5528
10.431	8.5067
10.410	8.4415
10.389	8.3650
10.368	8.2909
10.348	8.2199
10.327	8.1408
10.306	8.0475
10.286	7.9471
10.266	7.8322
10.245	7.7034
10.225	7.5743
10.205	7.4419
10.185	7.2847
10.165	7.0952
10.145	6.8790
10.125	6.6642
10.106	6.4601
10.086	6.2875
10.066	6.1404
10.047	6.0071
10.027	5.8820
10.008	5.7714
9.9887	5.6717
9.9695	5.5971
9.9504	5.5413
9.9313	5.5029
9.9123	5.4614
9.8934	5.4162
9.8746	5.3677
9.8558	5.3177
9.8371	5.2710
9.8185	5.2182
9.7999	5.1524
9.7814	5.0870
9.7630	5.0226
9.7447	4.9539
9.7264	4.8822
9.7082	4.8149
9.6900	4.7581
9.6719	4.7041
9.6539	4.6288
9.6360	4.5672
9.6181	4.5438
9.6003	4.5495
9.5825	4.5805
9.5649	4.6376
9.5472	4.7171
9.5297	4.8036
9.5122	4.8741
9.4948	4.9760
9.4774	5.1313
9.4601	5.3352
9.4429	5.6047
9.4257	5.9490
9.4086	6.3595
9.3916	6.8113
9.3746	7.2693
9.3577	7.6956
9.3408	8.0389
9.3240	8.2767
9.3073	8.4110
9.2906	8.4363
9.2740	8.3703
9.2574	8.2616
9.2409	8.1375
9.2245	8.0117
9.2081	7.8938
9.1918	7.7927
9.1755	7.6958
9.1593	7.5902
9.1431	7.4765
9.1270	7.3714
9.1110	7.2750
9.0950	7.1864
9.0791	7.1076
9.0632	7.0318
9.0474	6.9515
9.0316	6.8778
9.0159	6.8073
9.0003	6.7459
8.9847	6.7026
8.9691	6.6735
8.9536	6.6486
8.9382	6.6306
8.9228	6.6128
8.9075	6.5887
8.8922	6.5515
8.8770	6.5160
8.8618	6.4724
8.8467	6.4099
8.8316	6.3379
8.8166	6.2785
8.8016	6.2294
8.7867	6.1878
8.7718	6.1473
8.7570	6.1063
8.7422	6.0464
8.7275	5.9614
8.7129	5.8520
8.6982	5.7042
8.6837	5.4816
8.6692	5.1929
8.6547	4.8836
8.6403	4.6482
8.6259	4.5675
8.6116	4.6679
8.5973	4.9189
8.5830	5.2443
8.5688	5.5510
8.5547	5.7859
8.5406	5.9434
8.5266	6.0563
8.5126	6.1411
8.4986	6.2081
8.4847	6.2571
8.4708	6.2931
8.4570	6.3201
8.4432	6.3523
8.4295	6.4023
8.4158	6.4565
8.4022	6.4930
8.3886	6.5382
8.3750	6.6036
8.3615	6.6860
8.3481	6.7739
8.3347	6.8845
8.3213	7.0330
8.3079	7.2049
8.2946	7.3768
8.2814	7.5729
8.2682	7.8071
8.2550	8.0690
8.2419	8.3506
8.2288	8.6542
8.2158	8.9722
8.2028	9.2815
8.1898	9.5446
8.1769	9.7301
8.1640	9.8184
8.1512	9.7994
8.1384	9.6746
8.1256	9.4620
8.1129	9.1792
8.1002	8.8633
8.0876	8.5332
8.0750	8.1967
8.0624	7.8722
8.0499	7.5682
8.0374	7.2807
8.0250	7.0126
8.0126	6.7466
8.0002	6.4838
7.9879	6.2174
7.9756	5.9408
7.9634	5.6537
7.9512	5.3606
7.9390	5.0532
7.9268	4.7394
7.9147	4.4247
7.9027	4.1310
7.8906	3.8658
7.8786	3.6188
7.8667	3.3948
7.8548	3.2055
7.8429	3.0367
7.8310	2.8887
7.8192	2.7691
7.8075	2.6810
7.7957	2.6114
7.7840	2.5519
7.7723	2.5027
7.7607	2.4586
7.7491	2.4089
7.7375	2.3442
7.7260	2.2734
7.7145	2.2031
7.7031	2.1257
7.6916	2.0477
7.6802	1.9762
7.6689	1.9083
7.6575	1.8356
7.6462	1.7541
7.6350	1.6814
7.6238	1.6281
7.6126	1.5722
7.6014	1.5151
7.5903	1.4749
7.5792	1.4526
7.5681	1.4308
7.5571	1.4060
7.5461	1.3877
7.5351	1.3785
7.5242	1.3520
7.5133	1.3210
7.5024	1.3084
7.4916	1.3082
7.4807	1.3049
7.4700	1.3037
7.4592	1.3039
7.4485	1.3044
7.4378	1.3086
7.4272	1.3290
7.4165	1.3565
7.4059	1.3740
7.3954	1.3856
7.3848	1.3932
7.3743	1.3873
7.3639	1.3818
7.3534	1.3880
7.3430	1.4105
7.3326	1.4377
7.3222	1.4578
7.3119	1.4806
7.3016	1.5050
7.2914	1.5215
7.2811	1.5492
7.2709	1.5895
7.2607	1.6463
7.2506	1.7179
7.2404	1.7842
7.2303	1.8436
7.2203	1.8967
7.2102	1.9364
7.2002	1.9713
7.1902	1.9992
7.1803	2.0279
7.1703	2.0622
7.1604	2.1013
7.1506	2.1519
7.1407	2.2225
7.1309	2.3078
7.1211	2.3978
7.1113	2.4859
7.1016	2.5664
7.0919	2.6234
7.0822	2.6715
7.0725	2.7113
7.0629	2.7464
7.0533	2.7793
7.0437	2.8172
7.0341	2.8652
7.0246	2.9199
7.0151	2.9763
7.0056	3.0507
6.9962	3.1276
6.9867	3.2067
6.9773	3.2903
6.9679	3.3742
6.9586	3.4559
6.9493	3.5361
6.9400	3.6129
6.9307	3.6815
6.9214	3.7379
6.9122	3.7853
6.9030	3.8213
6.8938	3.8345
6.8847	3.8350
6.8755	3.8409
6.8664	3.8511
6.8573	3.8599
6.8483	3.8793
6.8393	3.9155
6.8302	3.9503
6.8213	3.9676
6.8123	3.9837
6.8034	3.9956
6.7944	3.9901
6.7855	3.9785
6.7767	3.9678
6.7678	3.9508
6.7590	3.9139
6.7502	3.8779
6.7414	3.8634
6.7327	3.8537
6.7239	3.8511
6.7152	3.8655
6.7065	3.8961
6.6979	3.9435
6.6892	4.0192
6.6806	4.1381
6.6720	4.2842
6.6634	4.4261
6.6549	4.5424
6.6464	4.6281
6.6378	4.6887
6.6294	4.7325
6.6209	4.7598
6.6124	4.7789
6.6040	4.7884
6.5956	4.7756
6.5872	4.7482
6.5789	4.7219
6.5705	4.7159
6.5622	4.7411
6.5539	4.8036
6.5456	4.9291
6.5374	5.1448
6.5292	5.4638
6.5209	5.8607
6.5128	6.3019
6.5046	6.7869
6.4964	7.2913
6.4883	7.7848
6.4802	8.2578
6.4721	8.7103
6.4640	9.1247
6.4560	9.4662
6.4480	9.7251
6.4399	9.8939
6.4320	9.9775
6.4240	10.001
6.4160	9.9808
6.4081	9.9138
6.4002	9.7840
6.3923	9.5941
6.3844	9.3504
6.3766	9.0419
6.3687	8.6919
6.3609	8.3442
6.3531	8.0200
6.3454	7.7174
6.3376	7.4254
6.3299	7.1291
6.3221	6.8295
6.3144	6.5276
6.3068	6.2212
6.2991	5.9242
6.2914	5.6507
6.2838	5.3928
6.2762	5.1529
6.2686	4.9326
6.2611	4.7297
6.2535	4.5549
6.2460	4.4019
6.2385	4.2714
6.2310	4.1781
6.2235	4.1109
6.2160	4.0702
6.2086	4.0642
6.2011	4.0931
6.1937	4.1781
6.1863	4.3136
6.1790	4.5014
6.1716	4.7685
6.1643	5.1100
6.1570	5.4989
6.1496	5.9228
6.1424	6.3642
6.1351	6.8058
6.1278	7.2219
6.1206	7.6079
6.1134	7.9781
6.1062	8.3371
6.0990	8.6639
6.0918	8.9599
6.0847	9.2259
6.0776	9.4383
6.0704	9.5700
6.0633	9.6557
6.0563	9.7248
6.0492	9.7885
6.0421	9.8565
6.0351	9.9205
6.0281	9.9690
6.0211	9.9811
6.0141	9.9219
6.0071	9.8110
6.0002	9.6590
5.9932	9.4636
5.9863	9.2500
5.9794	9.0222
5.9725	8.7904
5.9657	8.5798
5.9588	8.3762
5.9520	8.2066
5.9451	8.1164
5.9383	8.1088
5.9315	8.2085
5.9247	8.4280
5.9180	8.7305
5.9112	9.1020
5.9045	9.5008
5.8978	9.9183
5.8911	10.381
5.8844	10.858
5.8777	11.354
5.8711	11.868
5.8644	12.380
5.8578	12.892
5.8512	13.387
5.8446	13.840
5.8380	14.272
5.8314	14.693
5.8249	15.116
5.8184	15.549
5.8118	15.992
5.8053	16.439
5.7988	16.881
5.7923	17.290
5.7859	17.637
5.7794	17.968
5.7730	18.300
5.7666	18.625
5.7602	18.943
5.7538	19.261
5.7474	19.577
5.7410	19.864
5.7347	20.087
5.7283	20.255
5.7220	20.379
5.7157	20.441
5.7094	20.425
5.7031	20.325
5.6969	20.122
5.6906	19.799
5.6844	19.358
5.6782	18.788
5.6719	18.115
5.6657	17.353
5.6596	16.518
5.6534	15.653
5.6472	14.801
5.6411	14.008
5.6349	13.315
5.6288	12.729
5.6227	12.253
5.6166	11.873
5.6106	11.562
5.6045	11.311
5.5984	11.102
5.5924	10.926
5.5864	10.795
5.5804	10.715
5.5744	10.695
5.5684	10.745
5.5624	10.873
5.5564	11.066
5.5505	11.302
5.5445	11.576
5.5386	11.888
5.5327	12.217
5.5268	12.565
5.5209	12.941
5.5151	13.336
5.5092	13.736
5.5033	14.146
5.4975	14.551
5.4917	14.941
5.4859	15.306
5.4801	15.654
5.4743	15.986
5.4685	16.275
5.4628	16.493
5.4570	16.620
5.4513	16.619
5.4455	16.472
5.4398	16.157
5.4341	15.683
5.4284	15.081
5.4228	14.371
5.4171	13.566
5.4114	12.685
5.4058	11.766
5.4002	10.846
5.3945	9.9496
5.3889	9.1174
5.3833	8.3911
5.3778	7.7889
5.3722	7.3006
5.3666	6.9150
5.3611	6.6339
5.3555	6.4473
5.3500	6.3388
5.3445	6.2998
5.3390	6.3187
5.3335	6.3753
5.3280	6.4506
5.3225	6.5404
5.3171	6.6434
5.3116	6.7571
5.3062	6.8866
5.3008	7.0446
5.2954	7.2350
5.2900	7.4611
5.2846	7.7403
5.2792	8.0849
5.2738	8.4849
5.2684	8.9353
5.2631	9.4390
5.2578	10.003
5.2524	10.631
5.2471	11.322
5.2418	12.082
5.2365	12.905
5.2312	13.755
5.2260	14.590
5.2207	15.365
5.2154	16.044
5.2102	16.598
5.2050	17.007
5.1998	17.275
5.1945	17.424
5.1893	17.474
5.1842	17.449
5.1790	17.381
5.1738	17.291
5.1686	17.196
5.1635	17.101
5.1584	17.001
5.1532	16.901
5.1481	16.805
5.1430	16.713
5.1379	16.639
5.1328	16.590
5.1277	16.570
5.1227	16.570
5.1176	16.572
5.1126	16.551
5.1075	16.482
5.1025	16.341
5.0975	16.129
5.0925	15.860
5.0875	15.559
5.0825	15.265
5.0775	15.002
5.0726	14.787
5.0676	14.626
5.0627	14.515
5.0577	14.447
5.0528	14.408
5.0479	14.392
5.0430	14.386
5.0380	14.368
5.0332	14.330
5.0283	14.277
5.0234	14.227
5.0185	14.200
5.0137	14.217
5.0088	14.289
5.0040	14.411
4.9992	14.574
4.9944	14.792
4.9896	15.094
4.9848	15.493
4.9800	16.010
4.9752	16.653
4.9704	17.394
4.9657	18.183
4.9609	18.961
4.9562	19.679
4.9514	20.313
4.9467	20.840
4.9420	21.275
4.9373	21.676
4.9326	22.098
4.9279	22.605
4.9232	23.257
4.9186	24.114
4.9139	25.208
4.9092	26.517
4.9046	27.990
4.9000	29.576
4.8953	31.196
4.8907	32.776
4.8861	34.261
4.8815	35.629
4.8769	36.876
4.8723	37.991
4.8678	38.983
4.8632	39.883
4.8586	40.703
4.8541	41.450
4.8495	42.131
4.8450	42.750
4.8405	43.324
4.8360	43.852
4.8315	44.343
4.8270	44.811
4.8225	45.251
4.8180	45.669
4.8135	46.069
4.8090	46.442
4.8046	46.797
4.8001	47.134
4.7957	47.455
4.7913	47.763
4.7868	48.059
4.7824	48.348
4.7780	48.628
4.7736	48.886
4.7692	49.124
4.7648	49.347
4.7605	49.548
4.7561	49.728
4.7517	49.888
4.7474	50.030
4.7431	50.150
4.7387	50.240
4.7344	50.300
4.7301	50.331
4.7258	50.323
4.7215	50.268
4.7172	50.164
4.7129	49.996
4.7086	49.746
4.7043	49.410
4.7000	49.000
4.6958	48.557
4.6915	48.149
4.6873	47.860
4.6831	47.755
4.6788	47.846
4.6746	48.119
4.6704	48.531
4.6662	49.018
4.6620	49.524
4.6578	50.018
4.6536	50.491
4.6495	50.945
4.6453	51.387
4.6411	51.828
4.6370	52.266
4.6328	52.685
4.6287	53.064
4.6246	53.393
4.6205	53.673
4.6163	53.910
4.6122	54.118
4.6081	54.305
4.6040	54.478
4.6000	54.632
4.5959	54.758
4.5918	54.854
4.5877	54.927
4.5837	54.974
4.5796	54.989
4.5756	54.976
4.5716	54.941
4.5675	54.872
4.5635	54.771
4.5595	54.633
4.5555	54.453
4.5515	54.221
4.5475	53.941
4.5435	53.615
4.5395	53.242
4.5356	52.821
4.5316	52.367
4.5276	51.880
4.5237	51.340
4.5197	50.745
4.5158	50.114
4.5119	49.460
4.5080	48.800
4.5040	48.178
4.5001	47.638
4.4962	47.200
4.4923	46.850
4.4884	46.578
4.4846	46.365
4.4807	46.179
4.4768	46.012
4.4730	45.887
4.4691	45.834
4.4652	45.880
4.4614	46.033
4.4576	46.284
4.4537	46.591
4.4499	46.908
4.4461	47.208
4.4423	47.474
4.4385	47.706
4.4347	47.925
4.4309	48.157
4.4271	48.415
4.4233	48.688
4.4196	48.973
4.4158	49.273
4.4120	49.589
4.4083	49.912
4.4045	50.247
4.4008	50.599
4.3971	50.966
4.3934	51.336
4.3896	51.713
4.3859	52.095
4.3822	52.485
4.3785	52.881
4.3748	53.271
4.3711	53.645
4.3674	53.999
4.3638	54.339
4.3601	54.662
4.3564	54.958
4.3528	55.232
4.3491	55.484
4.3455	55.706
4.3418	55.892
4.3382	56.048
4.3346	56.184
4.3310	56.298
4.3273	56.388
4.3237	56.451
4.3201	56.481
4.3165	56.489
4.3129	56.470
4.3094	56.429
4.3058	56.378
4.3022	56.332
4.2986	56.292
4.2951	56.257
4.2915	56.233
4.2880	56.237
4.2844	56.255
4.2809	56.282
4.2774	56.327
4.2738	56.401
4.2703	56.507
4.2668	56.640
4.2633	56.799
4.2598	56.969
4.2563	57.120
4.2528	57.241
4.2493	57.332
4.2458	57.394
4.2424	57.435
4.2389	57.465
4.2354	57.497
4.2320	57.532
4.2285	57.579
4.2251	57.643
4.2216	57.711
4.2182	57.780
4.2148	57.838
4.2113	57.877
4.2079	57.899
4.2045	57.918
4.2011	57.945
4.1977	57.982
4.1943	58.030
4.1909	58.105
4.1875	58.206
4.1841	58.316
4.1808	58.437
4.1774	58.573
4.1740	58.702
4.1707	58.819
4.1673	58.927
4.1640	59.026
4.1606	59.118
4.1573	59.210
4.1540	59.313
4.1506	59.415
4.1473	59.507
4.1440	59.604
4.1407	59.705
4.1374	59.797
4.1341	59.890
4.1308	60.001
4.1275	60.125
4.1242	60.239
4.1209	60.348
4.1177	60.460
4.1144	60.566
4.1111	60.665
4.1079	60.763
4.1046	60.864
4.1014	60.967
4.0981	61.070
4.0949	61.166
4.0917	61.253
4.0884	61.338
4.0852	61.422
4.0820	61.493
4.0788	61.553
4.0756	61.609
4.0724	61.657
4.0692	61.687
4.0660	61.693
4.0628	61.687
4.0596	61.677
4.0565	61.661
4.0533	61.636
4.0501	61.601
4.0470	61.553
4.0438	61.500
4.0406	61.434
4.0375	61.358
4.0344	61.282
4.0312	61.204
4.0281	61.120
4.0250	61.020
4.0218	60.911
4.0187	60.796
4.0156	60.663
4.0125	60.501
4.0094	60.310
4.0063	60.103
4.0032	59.889
4.0001	59.667
3.9970	59.457
3.9940	59.256
3.9909	59.075
3.9878	58.931
3.9847	58.834
3.9817	58.781
3.9786	58.772
3.9756	58.804
3.9725	58.866
3.9695	58.947
3.9665	59.060
3.9634	59.214
3.9604	59.406
3.9574	59.619
3.9544	59.848
3.9513	60.084
3.9483	60.321
3.9453	60.539
3.9423	60.729
3.9393	60.889
3.9363	61.015
3.9333	61.103
3.9304	61.155
3.9274	61.192
3.9244	61.233
3.9214	61.273
3.9185	61.317
3.9155	61.359
3.9126	61.384
3.9096	61.393
3.9067	61.374
3.9037	61.344
3.9008	61.306
3.8979	61.270
3.8949	61.246
3.8920	61.215
3.8891	61.170
3.8862	61.127
3.8833	61.081
3.8804	61.028
3.8775	60.969
3.8746	60.915
3.8717	60.871
3.8688	60.825
3.8659	60.775
3.8630	60.733
3.8601	60.702
3.8573	60.685
3.8544	60.675
3.8515	60.662
3.8487	60.650
3.8458	60.644
3.8430	60.640
3.8401	60.636
3.8373	60.647
3.8344	60.667
3.8316	60.686
3.8288	60.702
3.8259	60.711
3.8231	60.715
3.8203	60.711
3.8175	60.703
3.8147	60.695
3.8119	60.672
3.8091	60.650
3.8063	60.642
3.8035	60.628
3.8007	60.609
3.7979	60.586
3.7951	60.557
3.7924	60.509
3.7896	60.442
3.7868	60.372
3.7841	60.298
3.7813	60.215
3.7785	60.135
3.7758	60.050
3.7730	59.966
3.7703	59.879
3.7676	59.788
3.7648	59.698
3.7621	59.601
3.7594	59.501
3.7566	59.410
3.7539	59.317
3.7512	59.225
3.7485	59.140
3.7458	59.055
3.7431	58.977
3.7404	58.909
3.7377	58.853
3.7350	58.809
3.7323	58.775
3.7296	58.739
3.7269	58.696
3.7242	58.654
3.7216	58.619
3.7189	58.584
3.7162	58.539
3.7136	58.488
3.7109	58.448
3.7083	58.405
3.7056	58.357
3.7030	58.326
3.7003	58.302
3.6977	58.273
3.6950	58.243
3.6924	58.223
3.6898	58.222
3.6872	58.220
3.6845	58.214
3.6819	58.212
3.6793	58.206
3.6767	58.186
3.6741	58.162
3.6715	58.136
3.6689	58.104
3.6663	58.059
3.6637	57.996
3.6611	57.934
3.6585	57.871
3.6560	57.802
3.6534	57.737
3.6508	57.672
3.6482	57.601
3.6457	57.523
3.6431	57.434
3.6406	57.337
3.6380	57.231
3.6355	57.125
3.6329	57.021
3.6304	56.921
3.6278	56.826
3.6253	56.727
3.6227	56.638
3.6202	56.549
3.6177	56.461
3.6152	56.366
3.6127	56.266
3.6101	56.174
3.6076	56.084
3.6051	55.984
3.6026	55.885
3.6001	55.790
3.5976	55.693
3.5951	55.593
3.5926	55.501
3.5901	55.411
3.5876	55.316
3.5852	55.214
3.5827	55.105
3.5802	54.994
3.5777	54.877
3.5753	54.765
3.5728	54.661
3.5704	54.543
3.5679	54.422
3.5654	54.306
3.5630	54.179
3.5605	54.035
3.5581	53.870
3.5557	53.697
3.5532	53.524
3.5508	53.341
3.5484	53.164
3.5459	52.985
3.5435	52.788
3.5411	52.577
3.5387	52.342
3.5363	52.086
3.5338	51.830
3.5314	51.582
3.5290	51.340
3.5266	51.100
3.5242	50.873
3.5218	50.662
3.5195	50.470
3.5171	50.292
3.5147	50.138
3.5123	50.016
3.5099	49.911
3.5075	49.818
3.5052	49.745
3.5028	49.678
3.5004	49.619
3.4981	49.571
3.4957	49.525
3.4934	49.477
3.4910	49.416
3.4887	49.338
3.4863	49.240
3.4840	49.121
3.4816	48.977
3.4793	48.833
3.4770	48.700
3.4746	48.580
3.4723	48.484
3.4700	48.401
3.4677	48.318
3.4653	48.232
3.4630	48.123
3.4607	47.985
3.4584	47.833
3.4561	47.687
3.4538	47.550
3.4515	47.427
3.4492	47.331
3.4469	47.265
3.4446	47.215
3.4423	47.159
3.4400	47.111
3.4378	47.075
3.4355	47.031
3.4332	46.977
3.4309	46.921
3.4287	46.847
3.4264	46.742
3.4241	46.612
3.4219	46.486
3.4196	46.355
3.4174	46.220
3.4151	46.085
3.4129	45.958
3.4106	45.840
3.4084	45.729
3.4061	45.636
3.4039	45.560
3.4017	45.478
3.3994	45.395
3.3972	45.306
3.3950	45.207
3.3928	45.100
3.3906	44.985
3.3883	44.861
3.3861	44.730
3.3839	44.590
3.3817	44.448
3.3795	44.311
3.3773	44.181
3.3751	44.070
3.3729	43.975
3.3707	43.890
3.3685	43.814
3.3663	43.748
3.3641	43.689
3.3620	43.634
3.3598	43.586
3.3576	43.550
3.3554	43.513
3.3533	43.476
3.3511	43.440
3.3489	43.409
3.3468	43.378
3.3446	43.345
3.3425	43.308
3.3403	43.276
3.3382	43.240
3.3360	43.198
3.3339	43.138
3.3317	43.057
3.3296	42.954
3.3274	42.843
3.3253	42.726
3.3232	42.605
3.3210	42.484
3.3189	42.364
3.3168	42.246
3.3147	42.116
3.3126	41.972
3.3104	41.828
3.3083	41.690
3.3062	41.546
3.3041	41.395
3.3020	41.254
3.2999	41.126
3.2978	40.989
3.2957	40.842
3.2936	40.697
3.2915	40.551
3.2894	40.404
3.2874	40.250
3.2853	40.090
3.2832	39.943
3.2811	39.806
3.2790	39.674
3.2770	39.535
3.2749	39.381
3.2728	39.229
3.2708	39.077
3.2687	38.915
3.2666	38.771
3.2646	38.642
3.2625	38.517
3.2605	38.378
3.2584	38.224
3.2564	38.074
3.2543	37.925
3.2523	37.772
3.2503	37.624
3.2482	37.475
3.2462	37.326
3.2442	37.174
3.2421	37.017
3.2401	36.867
3.2381	36.721
3.2361	36.580
3.2340	36.444
3.2320	36.305
3.2300	36.161
3.2280	36.019
3.2260	35.866
3.2240	35.708
3.2220	35.564
3.2200	35.420
3.2180	35.261
3.2160	35.100
3.2140	34.958
3.2120	34.824
3.2100	34.674
3.2080	34.529
3.2060	34.402
3.2040	34.269
3.2021	34.119
3.2001	33.974
3.1981	33.838
3.1961	33.699
3.1942	33.555
3.1922	33.416
3.1902	33.285
3.1883	33.167
3.1863	33.059
3.1844	32.944
3.1824	32.815
3.1805	32.679
3.1785	32.526
3.1766	32.369
3.1746	32.222
3.1727	32.093
3.1707	31.981
3.1688	31.864
3.1669	31.750
3.1649	31.623
3.1630	31.481
3.1611	31.347
3.1591	31.220
3.1572	31.100
3.1553	30.986
3.1534	30.871
3.1515	30.759
3.1495	30.638
3.1476	30.510
3.1457	30.383
3.1438	30.259
3.1419	30.139
3.1400	30.035
3.1381	29.932
3.1362	29.826
3.1343	29.717
3.1324	29.601
3.1305	29.486
3.1286	29.365
3.1268	29.247
3.1249	29.148
3.1230	29.045
3.1211	28.944
3.1192	28.846
3.1174	28.743
3.1155	28.636
3.1136	28.525
3.1117	28.430
3.1099	28.345
3.1080	28.258
3.1061	28.182
3.1043	28.101
3.1024	28.018
3.1006	27.921
3.0987	27.823
3.0969	27.732
3.0950	27.637
3.0932	27.541
3.0913	27.461
3.0895	27.382
3.0876	27.291
3.0858	27.191
3.0840	27.096
3.0821	27.016
3.0803	26.944
3.0785	26.874
3.0766	26.825
3.0748	26.791
3.0730	26.737
3.0712	26.675
3.0694	26.615
3.0675	26.561
3.0657	26.513
3.0639	26.451
3.0621	26.397
3.0603	26.350
3.0585	26.282
3.0567	26.207
3.0549	26.143
3.0531	26.092
3.0513	26.045
3.0495	25.982
3.0477	25.911
3.0459	25.839
3.0441	25.768
3.0423	25.700
3.0406	25.643
3.0388	25.593
3.0370	25.541
3.0352	25.482
3.0334	25.429
3.0317	25.376
3.0299	25.331
3.0281	25.279
3.0264	25.215
3.0246	25.144
3.0228	25.080
3.0211	25.035
3.0193	25.001
3.0176	24.962
3.0158	24.938
3.0140	24.909
3.0123	24.866
3.0105	24.817
3.0088	24.758
3.0070	24.705
3.0053	24.653
3.0036	24.600
3.0018	24.551
3.0001	24.511
2.9984	24.492
2.9966	24.469
2.9949	24.428
2.9932	24.390
2.9914	24.348
2.9897	24.286
2.9880	24.218
2.9863	24.170
2.9845	24.128
2.9828	24.064
2.9811	23.989
2.9794	23.913
2.9777	23.824
2.9760	23.726
2.9743	23.621
2.9726	23.511
2.9709	23.386
2.9692	23.267
2.9675	23.163
2.9658	23.057
2.9641	22.968
2.9624	22.909
2.9607	22.859
2.9590	22.820
2.9573	22.796
2.9556	22.801
2.9539	22.816
2.9523	22.820
2.9506	22.828
2.9489	22.837
2.9472	22.842
2.9455	22.852
2.9439	22.871
2.9422	22.904
2.9405	22.938
2.9389	22.959
2.9372	22.977
2.9355	23.000
2.9339	23.017
2.9322	23.024
2.9306	23.041
2.9289	23.064
2.9272	23.088
2.9256	23.119
2.9239	23.168
2.9223	23.215
2.9207	23.243
2.9190	23.254
2.9174	23.273
2.9157	23.295
2.9141	23.322
2.9124	23.370
2.9108	23.442
2.9092	23.503
2.9075	23.555
2.9059	23.609
2.9043	23.663
2.9027	23.720
2.9010	23.771
2.8994	23.821
2.8978	23.887
2.8962	23.950
2.8946	24.010
2.8929	24.079
2.8913	24.141
2.8897	24.196
2.8881	24.243
2.8865	24.279
2.8849	24.327
2.8833	24.385
2.8817	24.450
2.8801	24.527
2.8785	24.609
2.8769	24.683
2.8753	24.750
2.8737	24.809
2.8721	24.872
2.8705	24.933
2.8689	24.987
2.8673	25.044
2.8658	25.103
2.8642	25.158
2.8626	25.209
2.8610	25.263
2.8594	25.335
2.8579	25.402
2.8563	25.473
2.8547	25.548
2.8531	25.610
2.8516	25.667
2.8500	25.715
2.8484	25.765
2.8469	25.823
2.8453	25.882
2.8437	25.948
2.8422	26.009
2.8406	26.057
2.8391	26.091
2.8375	26.121
2.8360	26.161
2.8344	26.213
2.8329	26.276
2.8313	26.333
2.8298	26.366
2.8282	26.392
2.8267	26.405
2.8252	26.416
2.8236	26.445
2.8221	26.504
2.8205	26.577
2.8190	26.643
2.8175	26.691
2.8159	26.724
2.8144	26.746
2.8129	26.762
2.8114	26.776
2.8098	26.803
2.8083	26.826
2.8068	26.836
2.8053	26.836
2.8038	26.823
2.8022	26.822
2.8007	26.824
2.7992	26.806
2.7977	26.767
2.7962	26.694
2.7947	26.578
2.7932	26.435
2.7917	26.293
2.7902	26.187
2.7887	26.136
2.7872	26.123
2.7857	26.120
2.7842	26.094
2.7827	26.046
2.7812	25.998
2.7797	25.961
2.7782	25.937
2.7767	25.930
2.7752	25.882
2.7738	25.731
2.7723	25.455
2.7708	25.040
2.7693	24.374
2.7678	23.304
2.7664	21.937
2.7649	20.683
2.7634	19.929
2.7619	19.912
2.7605	20.649
2.7590	21.987
2.7575	23.555
2.7561	24.896
2.7546	25.848
2.7531	26.522
2.7517	27.000
2.7502	27.297
2.7488	27.389
2.7473	27.279
2.7458	26.953
2.7444	26.365
2.7429	25.585
2.7415	24.794
2.7400	24.191
2.7386	23.969
2.7371	24.241
2.7357	24.944
2.7343	25.855
2.7328	26.674
2.7314	27.179
2.7299	27.274
2.7285	27.038
2.7271	26.756
2.7256	26.700
2.7242	27.005
2.7228	27.674
2.7213	28.563
2.7199	29.455
2.7185	30.146
2.7171	30.544
2.7156	30.668
2.7142	30.576
2.7128	30.357
2.7114	30.090
2.7100	29.850
2.7085	29.726
2.7071	29.854
2.7057	30.388
2.7043	31.414
2.7029	32.934
2.7015	34.861
2.7001	36.990
2.6987	39.093
2.6973	41.004
2.6959	42.728
2.6945	44.334
2.6931	45.884
2.6917	47.394
2.6903	48.858
2.6889	50.235
2.6875	51.465
2.6861	52.557
2.6847	53.572
2.6833	54.489
2.6819	55.306
2.6805	56.015
2.6791	56.664
2.6778	57.318
2.6764	58.017
2.6750	58.652
2.6736	59.233
2.6722	59.832
2.6709	60.385
2.6695	60.838
2.6681	61.283
2.6667	61.855
2.6654	62.510
2.6640	63.072
2.6626	63.610
2.6613	64.195
2.6599	64.671
2.6585	65.020
2.6572	65.296
2.6558	65.552
2.6545	65.793
2.6531	66.032
2.6517	66.288
2.6504	66.538
2.6490	66.739
2.6477	66.940
2.6463	67.122
2.6450	67.278
2.6436	67.447
2.6423	67.654
2.6409	67.866
2.6396	68.059
2.6382	68.214
2.6369	68.388
2.6356	68.544
2.6342	68.597
2.6329	68.642
2.6315	68.711
2.6302	68.758
2.6289	68.860
2.6275	69.043
2.6262	69.328
2.6249	69.543
2.6236	69.587
2.6222	69.638
2.6209	69.624
2.6196	69.543
2.6183	69.547
2.6169	69.649
2.6156	69.828
2.6143	69.965
2.6130	70.054
2.6117	70.161
2.6103	70.169
2.6090	70.076
2.6077	70.004
2.6064	69.973
2.6051	70.007
2.6038	70.106
2.6025	70.274
2.6012	70.500
2.5999	70.609
2.5986	70.439
2.5973	70.186
2.5960	70.027
2.5947	70.001
2.5934	70.110
2.5921	70.336
2.5908	70.604
2.5895	70.779
2.5882	70.727
2.5869	70.588
2.5856	70.529
2.5843	70.536
2.5830	70.601
2.5817	70.675
2.5805	70.720
2.5792	70.785
2.5779	70.795
2.5766	70.737
2.5753	70.733
2.5741	70.746
2.5728	70.758
2.5715	70.797
2.5702	70.881
2.5690	70.992
2.5677	71.046
2.5664	71.038
2.5651	71.019
2.5639	70.969
2.5626	70.941
2.5613	70.992
2.5601	71.116
2.5588	71.255
2.5575	71.361
2.5563	71.399
2.5550	71.370
2.5538	71.330
2.5525	71.314
2.5513	71.297
2.5500	71.281
2.5487	71.278
2.5475	71.283
2.5462	71.292
2.5450	71.328
2.5437	71.387
2.5425	71.468
2.5413	71.559
2.5400	71.631
2.5388	71.684
2.5375	71.722
2.5363	71.741
2.5350	71.749
2.5338	71.750
2.5326	71.772
2.5313	71.819
2.5301	71.860
2.5289	71.901
2.5276	71.940
2.5264	71.969
2.5252	71.994
2.5239	72.033
2.5227	72.085
2.5215	72.129
2.5202	72.143
2.5190	72.142
2.5178	72.144
2.5166	72.156
2.5154	72.171
2.5141	72.197
2.5129	72.236
2.5117	72.282
2.5105	72.320
2.5093	72.353
2.5081	72.387
2.5068	72.425
2.5056	72.449
2.5044	72.468
2.5032	72.482
2.5020	72.499
2.5008	72.518
2.4996	72.541
2.4984	72.563
2.4972	72.585
2.4960	72.611
2.4948	72.648
2.4936	72.685
2.4924	72.723
2.4912	72.747
2.4900	72.769
2.4888	72.803
2.4876	72.843
2.4864	72.897
2.4852	72.981
2.4840	73.084
2.4828	73.195
2.4816	73.303
2.4805	73.417
2.4793	73.530
2.4781	73.621
2.4769	73.686
2.4757	73.745
2.4745	73.795
2.4734	73.836
2.4722	73.885
2.4710	73.932
2.4698	73.973
2.4686	74.019
2.4675	74.064
2.4663	74.117
2.4651	74.174
2.4640	74.220
2.4628	74.269
2.4616	74.308
2.4604	74.328
2.4593	74.347
2.4581	74.378
2.4569	74.433
2.4558	74.508
2.4546	74.595
2.4535	74.700
2.4523	74.793
2.4511	74.843
2.4500	74.878
2.4488	74.931
2.4477	75.002
2.4465	75.075
2.4454	75.166
2.4442	75.267
2.4431	75.355
2.4419	75.422
2.4408	75.484
2.4396	75.576
2.4385	75.690
2.4373	75.809
2.4362	75.947
2.4350	76.085
2.4339	76.202
2.4327	76.297
2.4316	76.379
2.4305	76.466
2.4293	76.556
2.4282	76.651
2.4270	76.745
2.4259	76.836
2.4248	76.924
2.4236	77.012
2.4225	77.096
2.4214	77.180
2.4202	77.259
2.4191	77.336
2.4180	77.388
2.4169	77.432
2.4157	77.492
2.4146	77.562
2.4135	77.629
2.4124	77.683
2.4112	77.718
2.4101	77.753
2.4090	77.788
2.4079	77.822
2.4068	77.867
2.4056	77.921
2.4045	77.967
2.4034	77.975
2.4023	77.966
2.4012	77.951
2.4001	77.915
2.3990	77.856
2.3979	77.792
2.3967	77.733
2.3956	77.690
2.3945	77.660
2.3934	77.649
2.3923	77.641
2.3912	77.610
2.3901	77.552
2.3890	77.473
2.3879	77.393
2.3868	77.327
2.3857	77.276
2.3846	77.258
2.3835	77.291
2.3824	77.341
2.3813	77.391
2.3802	77.453
2.3791	77.538
2.3781	77.638
2.3770	77.728
2.3759	77.823
2.3748	77.924
2.3737	78.006
2.3726	78.071
2.3715	78.138
2.3704	78.210
2.3694	78.267
2.3683	78.300
2.3672	78.315
2.3661	78.318
2.3650	78.303
2.3640	78.283
2.3629	78.267
2.3618	78.261
2.3607	78.242
2.3597	78.223
2.3586	78.203
2.3575	78.207
2.3564	78.229
2.3554	78.276
2.3543	78.325
2.3532	78.383
2.3522	78.436
2.3511	78.474
2.3500	78.489
2.3490	78.522
2.3479	78.564
2.3468	78.622
2.3458	78.688
2.3447	78.758
2.3436	78.817
2.3426	78.859
2.3415	78.880
2.3405	78.900
2.3394	78.914
2.3384	78.928
2.3373	78.942
2.3363	78.941
2.3352	78.930
2.3342	78.902
2.3331	78.870
2.3321	78.842
2.3310	78.800
2.3300	78.766
2.3289	78.742
2.3279	78.727
2.3268	78.711
2.3258	78.693
2.3247	78.697
2.3237	78.721
2.3226	78.724
2.3216	78.726
2.3206	78.736
2.3195	78.749
2.3185	78.754
2.3175	78.759
2.3164	78.777
2.3154	78.796
2.3144	78.800
2.3133	78.804
2.3123	78.804
2.3113	78.832
2.3102	78.897
2.3092	78.960
2.3082	79.019
2.3071	79.079
2.3061	79.122
2.3051	79.144
2.3041	79.144
2.3030	79.171
2.3020	79.226
2.3010	79.265
2.3000	79.300
2.2990	79.329
2.2979	79.347
2.2969	79.356
2.2959	79.343
2.2949	79.326
2.2939	79.322
2.2929	79.334
2.2918	79.362
2.2908	79.387
2.2898	79.420
2.2888	79.458
2.2878	79.460
2.2868	79.434
2.2858	79.410
2.2848	79.408
2.2838	79.422
2.2828	79.432
2.2818	79.450
2.2808	79.493
2.2798	79.533
2.2787	79.567
2.2777	79.604
2.2767	79.648
2.2757	79.679
2.2747	79.691
2.2738	79.708
2.2728	79.726
2.2718	79.716
2.2708	79.713
2.2698	79.720
2.2688	79.726
2.2678	79.727
2.2668	79.728
2.2658	79.738
2.2648	79.761
2.2638	79.779
2.2628	79.805
2.2618	79.837
2.2609	79.844
2.2599	79.828
2.2589	79.820
2.2579	79.830
2.2569	79.869
2.2559	79.912
2.2550	79.927
2.2540	79.933
2.2530	79.918
2.2520	79.881
2.2510	79.870
2.2501	79.887
2.2491	79.898
2.2481	79.900
2.2471	79.890
2.2462	79.884
2.2452	79.888
2.2442	79.895
2.2433	79.903
2.2423	79.904
2.2413	79.909
2.2403	79.940
2.2394	79.960
2.2384	79.976
2.2374	80.010
2.2365	80.050
2.2355	80.064
2.2345	80.054
2.2336	80.071
2.2326	80.086
2.2317	80.070
2.2307	80.052
2.2297	80.055
2.2288	80.078
2.2278	80.081
2.2269	80.048
2.2259	79.987
2.2250	79.894
2.2240	79.798
2.2231	79.705
2.2221	79.617
2.2211	79.529
2.2202	79.422
2.2192	79.300
2.2183	79.140
2.2173	78.936
2.2164	78.677
2.2155	78.313
2.2145	77.778
2.2136	77.034
2.2126	76.109
2.2117	75.102
2.2107	74.199
2.2098	73.610
2.2088	73.456
2.2079	73.751
2.2070	74.372
2.2060	75.141
2.2051	75.889
2.2041	76.490
2.2032	76.938
2.2023	77.268
2.2013	77.516
2.2004	77.711
2.1995	77.831
2.1985	77.893
2.1976	77.936
2.1967	77.947
2.1957	77.939
2.1948	77.958
2.1939	78.025
2.1930	78.136
2.1920	78.257
2.1911	78.391
2.1902	78.540
2.1893	78.681
2.1883	78.824
2.1874	78.972
2.1865	79.095
2.1856	79.196
2.1846	79.295
2.1837	79.392
2.1828	79.467
2.1819	79.523
2.1810	79.573
2.1800	79.604
2.1791	79.600
2.1782	79.575
2.1773	79.586
2.1764	79.629
2.1755	79.664
2.1746	79.666
2.1736	79.649
2.1727	79.618
2.1718	79.576
2.1709	79.535
2.1700	79.525
2.1691	79.543
2.1682	79.549
2.1673	79.510
2.1664	79.454
2.1655	79.395
2.1646	79.360
2.1637	79.357
2.1628	79.373
2.1619	79.414
2.1610	79.463
2.1601	79.527
2.1592	79.617
2.1583	79.714
2.1574	79.832
2.1565	79.952
2.1556	80.056
2.1547	80.166
2.1538	80.279
2.1529	80.415
2.1520	80.579
2.1511	80.753
2.1502	80.938
2.1493	81.127
2.1484	81.331
2.1475	81.553
2.1466	81.765
2.1458	81.947
2.1449	82.096
2.1440	82.219
2.1431	82.322
2.1422	82.406
2.1413	82.504
2.1404	82.613
2.1396	82.723
2.1387	82.812
2.1378	82.873
2.1369	82.948
2.1360	83.031
2.1352	83.085
2.1343	83.131
2.1334	83.179
2.1325	83.244
2.1316	83.282
2.1308	83.281
2.1299	83.278
2.1290	83.292
2.1281	83.309
2.1273	83.318
2.1264	83.322
2.1255	83.343
2.1247	83.352
2.1238	83.341
2.1229	83.342
2.1220	83.380
2.1212	83.428
2.1203	83.445
2.1194	83.423
2.1186	83.415
2.1177	83.415
2.1168	83.417
2.1160	83.446
2.1151	83.487
2.1143	83.493
2.1134	83.476
2.1125	83.474
2.1117	83.493
2.1108	83.529
2.1100	83.585
2.1091	83.666
2.1082	83.756
2.1074	83.819
2.1065	83.852
2.1057	83.881
2.1048	83.886
2.1040	83.872
2.1031	83.846
2.1023	83.812
2.1014	83.805
2.1005	83.829
2.0997	83.844
2.0988	83.851
2.0980	83.865
2.0971	83.901
2.0963	83.923
2.0955	83.919
2.0946	83.929
2.0938	83.950
2.0929	83.961
2.0921	83.949
2.0912	83.926
2.0904	83.910
2.0895	83.879
2.0887	83.842
2.0879	83.817
2.0870	83.826
2.0862	83.879
2.0853	83.928
2.0845	83.961
2.0837	83.979
2.0828	83.996
2.0820	83.989
2.0812	83.997
2.0803	84.010
2.0795	83.966
2.0760	83.966
2.0720	84.442
2.0680	84.207
2.0640	84.163
2.0600	83.907
2.0560	84.737
2.0520	84.830
2.0480	84.059
2.0440	83.781
2.0400	83.495
2.0360	83.327
2.0320	83.604
2.0280	83.578
2.0240	83.278
2.0200	82.769
2.0160	82.953
2.0120	82.769
2.0080	82.399
2.0040	82.707
2.0000	81.905
1.9960	80.735
1.9920	80.725
1.9880	81.141
1.9840	81.160
1.9800	80.638
1.9760	80.238
1.9720	79.354
1.9680	78.923
1.9640	78.902
1.9600	78.512
1.9560	77.924
1.9520	78.277
1.9480	78.005
1.9440	77.482
1.9400	76.939
1.9360	76.463
1.9320	76.168
1.9280	76.030
1.9240	77.043
1.9200	77.459
1.9160	77.459
1.9120	76.973
1.9080	77.323
1.9040	77.921
1.9000	79.091
1.8960	81.025
1.8920	81.129
1.8880	80.766
1.8840	80.790
1.8800	80.209
1.8760	80.082
1.8720	79.885
1.8680	80.306
1.8640	82.409
1.8600	84.257
1.8560	84.932
1.8520	84.872
1.8480	84.045
1.8440	83.340
1.8400	82.788
1.8360	82.999
1.8320	83.762
1.8280	84.237
1.8240	84.352
1.8200	83.600
1.8160	83.342
1.8120	82.661
1.8080	82.628
1.8040	83.003
1.8000	82.628
1.7960	82.716
1.7920	82.556
1.7880	82.025
1.7840	82.149
1.7800	82.556
1.7760	82.804
1.7720	82.859
1.7680	82.771
1.7640	82.292
1.7600	82.220
1.7560	82.238
1.7520	82.414
1.7480	81.849
1.7440	81.568
1.7400	81.921
1.7360	81.691
1.7320	81.656
1.7280	81.869
1.7240	82.117
1.7200	82.349
1.7160	82.581
1.7120	82.793
1.7080	82.451
1.7040	82.594
1.7000	82.644
1.6960	82.661
1.6920	82.380
1.6880	82.292
1.6840	82.302
1.6800	82.380
1.6760	82.309
1.6720	82.149
1.6680	81.920
1.6640	82.072
1.6600	82.427
1.6560	81.984
1.6520	81.966
1.6480	81.843
1.6440	81.579
1.6400	81.843
1.6360	81.790
1.6320	81.719
1.6280	82.410
1.6240	82.197
1.6200	82.072
1.6160	81.755
1.6120	81.631
1.6080	81.367
1.6040	81.367
1.6000	81.227
1.5960	81.315
1.5920	81.897
1.5880	82.039
1.5840	81.968
1.5800	81.897
1.5760	81.808
1.5720	81.773
1.5680	81.861
1.5640	81.755
1.5600	81.388
1.5560	81.227
1.5520	81.018
1.5480	81.155
1.5440	81.018
1.5400	80.651
1.5360	80.356
1.5320	80.600
1.5280	80.794
1.5240	80.605
1.5200	81.039
1.5160	81.388
1.5120	81.021
1.5080	80.306
1.5040	79.441
1.5000	79.460
1.4960	79.803
1.4920	80.217
1.4880	81.078
1.4840	79.667
1.4800	79.431
1.4760	79.342
1.4720	79.098
1.4680	78.962
1.4640	79.060
1.4600	79.401
1.4560	79.607
1.4520	78.945
1.4480	78.573
1.4440	77.954
1.4400	77.483
1.4360	77.221
1.4320	77.342
1.4280	77.618
1.4240	77.706
1.4200	77.464
1.4160	76.729
1.4120	75.725
1.4080	75.311
1.4040	75.196
1.4000	75.991
1.3960	77.231
1.3920	77.816
1.3880	78.200
1.3840	78.222
1.3800	78.106
1.3760	78.911
1.3720	80.809
1.3680	81.169
1.3640	79.875
1.3600	78.716
1.3560	79.117
1.3520	80.838
1.3480	81.866
1.3440	81.670
1.3400	80.549
1.3360	79.795
1.3320	79.342
1.3280	79.256
1.3240	79.679
1.3200	80.087
1.3160	80.224
1.3120	79.895
1.3080	79.516
1.3040	79.556
1.3000	79.247
1.2960	79.247
1.2920	79.274
1.2880	79.059
1.2840	78.622
1.2800	78.715
1.2760	78.876
1.2720	78.950
1.2680	79.066
1.2640	79.725
1.2600	79.764
1.2560	79.874
1.2520	79.663
1.2480	79.602
1.2440	79.421
1.2400	79.832
1.2360	79.972
1.2320	80.121
1.2280	79.495
1.2240	78.941
1.2200	78.920
1.2160	79.117
1.2120	79.611
1.2080	80.030
1.2040	80.151
1.2000	79.163
1.1960	78.141
1.1920	77.806
1.1880	77.673
1.1840	77.474
1.1800	77.430
1.1760	77.386
1.1720	77.342
1.1680	77.036
1.1640	76.731
1.1600	76.534
1.1560	76.207
1.1520	76.074
1.1480	76.245
1.1440	76.470
1.1400	77.085
1.1360	77.676
1.1320	76.905
1.1280	77.363
1.1240	76.793
1.1200	77.282
1.1160	77.753
1.1120	76.905
1.1080	76.750
1.1040	76.328
1.1000	76.394
1.0960	76.104
1.0920	76.724
1.0880	76.380
1.0840	76.582
1.0800	76.207
1.0760	75.959
1.0720	75.763
1.0680	75.846
1.0640	75.521
1.0600	75.249
1.0560	75.426
1.0520	75.769
1.0480	75.545
1.0440	75.120
1.0400	75.032
1.0360	75.160
1.0320	75.142
1.0280	74.708
1.0240	74.506
1.0200	74.403
1.0160	74.974
1.0120	74.916
1.0080	74.177
1.0040	73.924
1.0000	73.949
0.99600	74.266
0.99200	74.900
0.98800	74.241
0.98400	73.609
0.98000	73.171
0.97600	73.131
0.97200	73.281
0.96800	73.344
0.96400	73.017
0.96000	73.079
0.95600	73.027
0.95200	72.892
0.94800	72.705
0.94400	73.017
0.94000	72.804
0.93600	72.804
0.93200	72.715
0.92800	72.529
0.92400	72.230
0.92000	72.265
0.91600	72.415
0.91200	72.043
0.90800	71.921
0.90400	72.140
0.90000	72.290
0.89600	71.902
0.89200	71.787
0.88800	71.787
0.88400	71.916
0.88000	71.872
0.87600	71.810
0.87200	71.872
0.86800	72.005
0.86400	72.254
0.86000	72.129
0.85600	71.977
0.85200	72.255
0.84800	71.808
0.84400	71.709
0.84000	71.933
0.83600	72.318
0.83200	72.174
0.82800	72.264
0.82400	72.334
0.82000	72.084
0.81600	71.986
0.81200	72.074
0.80800	71.748
0.80400	71.670
0.80000	71.662
0.79900	71.662
0.79800	71.662
0.79700	72.202
0.79600	71.424
0.79500	71.469
0.79400	71.400
0.79300	71.143
0.79200	71.363
0.79100	71.171
0.79000	71.183
0.78900	71.083
0.78800	71.127
0.78700	71.510
0.78600	71.482
0.78500	71.289
0.78400	71.289
0.78300	71.358
0.78200	71.220
0.78100	71.080
0.78000	71.576
0.77900	71.742
0.77800	71.261
0.77700	70.738
0.77600	70.602
0.77500	70.744
0.77400	70.819
0.77300	70.931
0.77200	71.093
0.77100	71.096
0.77000	71.192
0.76900	71.093
0.76800	70.887
0.76700	70.803
0.76600	70.893
0.76500	70.609
0.76400	70.581
0.76300	70.319
0.76200	70.241
0.76100	70.455
0.76000	70.638
0.75900	70.291
0.75800	70.359
0.75700	70.427
0.75600	70.581
0.75500	70.223
0.75400	70.291
0.75300	70.165
0.75200	70.126
0.75100	70.058
0.75000	70.126
0.74900	70.029
0.74800	70.309
0.74700	70.449
0.74600	70.175
0.74500	70.216
0.74400	70.352
0.74300	69.830
0.74200	69.627
0.74100	70.558
0.74000	70.432
0.73900	69.830
0.73800	69.636
0.73700	69.510
0.73600	69.636
0.73500	69.443
0.73400	69.613
0.73300	70.062
0.73200	70.501
0.73100	70.169
0.73000	69.548
0.72900	69.849
0.72800	69.592
0.72700	69.936
0.72600	69.278
0.72500	70.033
0.72400	69.936
0.72300	68.953
0.72200	68.567
0.72100	68.900
0.72000	68.997
0.71900	68.997
0.71800	69.265
0.71700	69.198
0.71600	68.809
0.71500	69.198
0.71400	69.673
0.71300	69.507
0.71200	69.233
0.71100	68.700
0.71000	68.796
0.70900	68.050
0.70800	68.046
0.70700	68.773
0.70600	68.582
0.70500	69.046
0.70400	69.339
0.70300	69.195
0.70200	68.911
0.70100	68.647
0.70000	67.899
0.69900	70.158
0.69800	70.098
0.69700	69.870
0.69600	69.435
0.69500	69.426
0.69400	69.086
0.69300	68.472
0.69200	68.372
0.69100	68.678
0.69000	68.409
0.68900	68.553
0.68800	68.747
0.68700	68.778
0.68600	68.678
0.68500	68.484
0.68400	68.647
0.68300	68.283
0.68200	68.390
0.68100	68.151
0.68000	68.146
0.67900	67.942
0.67800	67.642
0.67700	68.326
0.67600	67.987
0.67500	68.284
0.67400	68.453
0.67300	68.283
0.67200	67.942
0.67100	67.851
0.67000	67.582
0.66900	67.478
0.66800	67.924
0.66700	67.960
0.66600	67.722
0.66500	67.782
0.66400	67.646
0.66300	67.818
0.66200	67.892
0.66100	67.521
0.66000	67.215
0.65900	67.218
0.65800	67.524
0.65700	67.427
0.65600	67.391
0.65500	67.319
0.65400	67.694
0.65300	67.524
0.65200	67.628
0.65100	67.798
0.65000	67.491
0.64900	67.118
0.64800	67.118
0.64700	67.322
0.64600	67.391
0.64500	67.120
0.64400	66.916
0.64300	66.815
0.64200	66.951
0.64100	67.087
0.64000	66.986
0.63900	67.087
0.63800	66.985
0.63700	67.052
0.63600	66.782
0.63500	66.513
0.63400	66.378
0.63300	65.975
0.63200	65.840
0.63100	65.807
0.63000	66.615
0.62900	66.615
0.62800	66.615
0.62700	66.109
0.62600	65.907
0.62500	65.907
0.62400	65.974
0.62300	66.548
0.62200	66.447
0.62100	66.379
0.62000	66.345
0.61900	66.345
0.61800	66.311
0.61700	66.074
0.61600	65.703
0.61500	65.468
0.61400	65.670
0.61300	65.436
0.61200	65.502
0.61100	65.401
0.61000	65.401
0.60900	65.401
0.60800	65.300
0.60700	65.164
0.60600	65.195
0.60500	65.161
0.60400	65.262
0.60300	65.190
0.60200	65.358
0.60100	65.217
0.60000	65.118
0.59900	64.847
0.59800	64.807
0.59700	64.838
0.59600	65.107
0.59500	65.207
0.59400	64.968
0.59300	64.829
0.59200	64.591
0.59100	64.488
0.59000	64.288
0.58900	64.968
0.58800	65.036
0.58700	64.591
0.58600	64.179
0.58500	63.980
0.58400	64.385
0.58300	64.586
0.58200	63.877
0.58100	64.105
0.58000	63.869
0.57900	63.899
0.57800	63.972
0.57700	63.869
0.57600	63.457
0.57500	63.869
0.57400	63.874
0.57300	63.964
0.57200	63.342
0.57100	63.471
0.57000	63.398
0.56900	63.130
0.56800	62.863
0.56700	62.457
0.56600	62.318
0.56500	62.217
0.56400	62.217
0.56300	61.950
0.56200	61.849
0.56100	61.670
0.56000	61.656
0.55900	59.105
0.55800	61.282
0.55700	61.103
0.55600	60.745
0.55500	60.509
0.55400	60.316
0.55300	60.084
0.55200	60.121
0.55100	60.088
0.55000	60.049
0.54900	60.252
0.54800	59.657
0.54700	59.636
0.54600	59.895
0.54500	59.321
0.54400	59.067
0.54300	59.458
0.54200	58.726
0.54100	58.880
0.54000	58.075
0.53900	57.861
0.53800	58.389
0.53700	58.759
0.53600	58.126
0.53500	57.728
0.53400	57.404
0.53300	56.876
0.53200	56.748
0.53100	56.606
0.53000	56.975
0.52900	57.231
0.52800	57.189
0.52700	56.819
0.52600	56.254
0.52500	56.280
0.52400	56.363
0.52300	55.803
0.52200	55.550
0.52100	55.166
0.52000	54.846
0.51900	54.921
0.51800	54.231
0.51700	54.177
0.51600	54.348
0.51500	53.970
0.51400	53.266
0.51300	52.884
0.51200	53.202
0.51100	53.379
0.51000	53.402
0.50900	53.109
0.50800	52.098
0.50700	52.196
0.50600	51.692
0.50500	52.098
0.50400	51.758
0.50300	51.350
0.50200	51.600
0.50100	51.406
0.50000	51.062
0.49900	50.965
0.49800	50.566
0.49700	50.767
0.49600	50.272
0.49500	50.223
0.49400	49.827
0.49300	49.244
0.49200	50.072
0.49100	49.877
0.49000	49.828
0.48900	49.188
0.48800	48.845
0.48700	49.043
0.48600	48.700
0.48500	48.504
0.48400	48.600
0.48300	48.399
0.48200	48.735
0.48100	48.345
0.48000	48.399
0.47900	47.766
0.47800	47.661
0.47700	47.661
0.47600	47.754
0.47500	47.707
0.47400	47.562
0.47300	47.422
0.47200	47.029
0.47100	47.122
0.47000	47.325
0.46900	47.091
0.46800	47.091
0.46700	46.986
0.46600	46.600
0.46500	46.560
0.46400	46.563
0.46300	46.872
0.46200	46.299
0.46100	46.245
0.46000	46.059
0.45900	45.599
0.45800	45.918
0.45700	45.793
0.45600	45.863
0.45500	45.566
0.45400	45.409
0.45300	45.499
0.45200	45.385
0.45100	45.407
0.45000	45.529
0.44900	45.278
0.44800	45.176
0.44700	45.018
0.44600	44.852
0.44500	44.425
0.44400	43.807
0.44300	44.250
0.44200	44.207
0.44100	43.919
0.44000	43.991
0.43900	43.311
0.43800	43.155
0.43700	42.850
0.43600	42.485
0.43500	42.378
0.43400	42.255
0.43300	42.236
0.43200	41.527
0.43100	41.324
0.43000	41.091
0.42900	41.337
0.42800	41.010
0.42700	40.793
0.42600	40.609
0.42500	40.171
0.42400	39.663
0.42300	39.549
0.42200	39.148
0.42100	39.297
0.42000	39.260
0.41900	38.672
0.41800	38.866
0.41700	38.866
0.41600	38.554
0.41500	38.450
0.41400	38.276
0.41300	37.462
0.41200	37.950
0.41100	37.503
0.41000	37.287
0.40900	36.800
0.40800	36.838
0.40700	36.944
0.40600	36.840
0.40500	36.352
0.40400	36.278
0.40300	36.386
0.40200	36.252
0.40100	36.005
0.40000	35.935
0.0000	
