Name: Ferruginous Sandstone
Type:  Rocks
Class:  Sedimentary
Subclass: Sandstone 
Particle Size:  0 - 75 Micrometers
Sample No.:  sandstone.4
Owner:  JHU
Wavelength Range:  All
Origin:  Sample No. 452,  The Hunt and Salisbury Collection at the U.S. 
Geological Survey, Denver, Co.
Description: Poorly sorted, low porosity sandstone containing 
medium-grained, well-rounded to subrounded quartz grains coated 
with ferruginous material (clay) and some carbonate. Sample 
displays quartz redeposition and pressure solution of the quartz, 
recrystallization of carbonate as scattered large anhedra, and silica 
recrystallization; also, some microcline and carbonaceous material.
Measurement:  Directional (10 Degree) Hemispherical Reflectance
First Column:  X
Second Column:  Y  
X Units:  Wavelength (micrometers)
Y Units:  Reflectance (percent)
First X Value: 14.0112
Last X Value:  0.4
Number of X Values: 2844
Additional Information:  None

14.983	11.117
14.940	11.693
14.897	11.981
14.854	11.970
14.812	11.149
14.770	10.594
14.728	10.264
14.686	9.6735
14.645	9.1544
14.603	8.6296
14.562	7.9125
14.521	6.8478
14.481	5.9043
14.441	4.9570
14.400	4.4180
14.361	4.3347
14.321	4.3849
14.281	4.8936
14.242	5.6968
14.203	6.3509
14.164	6.6086
14.126	6.1823
14.087	5.3227
14.049	4.2437
14.011	3.9217
13.973	4.7988
13.936	6.4878
13.899	8.1967
13.861	9.3627
13.824	10.167
13.788	10.777
13.751	11.259
13.715	11.505
13.679	11.667
13.643	11.721
13.607	11.726
13.571	11.664
13.536	11.610
13.500	11.646
13.465	11.609
13.430	11.491
13.396	11.399
13.361	11.209
13.327	10.920
13.293	10.561
13.259	10.244
13.225	9.9257
13.191	9.4890
13.158	8.8903
13.124	8.3551
13.091	7.8192
13.058	7.3228
13.026	6.8366
12.993	6.3782
12.960	6.0435
12.928	5.7802
12.896	5.6163
12.864	5.5763
12.832	5.5540
12.800	5.5121
12.769	5.4065
12.737	5.2571
12.706	5.0982
12.675	4.9078
12.644	4.7204
12.614	4.6719
12.583	4.7235
12.552	4.7235
12.522	4.7022
12.492	4.6989
12.462	4.7444
12.432	4.7572
12.402	4.7126
12.373	4.6492
12.343	4.7186
12.314	4.9423
12.285	5.2737
12.256	5.6883
12.227	6.1797
12.198	6.7433
12.169	7.3477
12.141	7.8625
12.113	8.3911
12.084	9.0075
12.056	9.5413
12.028	9.9879
12.000	10.511
11.973	10.987
11.945	11.388
11.918	11.710
11.890	11.975
11.863	12.170
11.836	11.797
11.809	10.446
11.782	10.093
11.755	11.745
11.729	13.030
11.702	13.372
11.676	13.349
11.650	13.215
11.624	12.941
11.598	12.456
11.572	11.666
11.546	10.638
11.520	9.2510
11.495	7.5760
11.469	6.3950
11.444	5.9630
11.419	5.8655
11.394	5.9938
11.369	6.3836
11.344	6.9709
11.319	7.7751
11.294	9.4814
11.270	11.760
11.245	13.108
11.221	13.393
11.197	13.430
11.173	13.466
11.149	13.546
11.125	13.588
11.101	13.573
11.077	13.490
11.054	13.486
11.030	13.477
11.007	13.413
10.983	13.372
10.960	13.376
10.937	13.368
10.914	13.353
10.891	13.381
10.868	13.326
10.846	13.217
10.823	13.180
10.800	13.127
10.778	13.005
10.755	12.860
10.733	12.793
10.711	12.714
10.689	12.615
10.667	12.503
10.645	12.317
10.623	12.161
10.602	12.066
10.580	11.957
10.558	11.862
10.537	11.733
10.516	11.625
10.494	11.555
10.473	11.422
10.452	11.223
10.431	11.061
10.410	10.891
10.389	10.634
10.368	10.326
10.348	10.112
10.327	9.9752
10.306	9.8392
10.286	9.6711
10.266	9.5314
10.245	9.3604
10.225	9.1544
10.205	8.9654
10.185	8.7205
10.165	8.4922
10.145	8.3217
10.125	8.1398
10.106	7.9518
10.086	7.7737
10.066	7.5767
10.047	7.4280
10.027	7.3366
10.008	7.2366
9.9887	7.1642
9.9695	7.1206
9.9504	7.0768
9.9313	7.0600
9.9123	7.0178
9.8934	6.9906
9.8746	6.9413
9.8558	6.8317
9.8371	6.7445
9.8185	6.6718
9.7999	6.5603
9.7814	6.5023
9.7630	6.4241
9.7447	6.3507
9.7264	6.3005
9.7082	6.1863
9.6900	6.1170
9.6719	6.0952
9.6539	6.0111
9.6360	5.8749
9.6181	5.8138
9.6003	5.7740
9.5825	5.7800
9.5649	5.8856
9.5472	5.9829
9.5297	6.0270
9.5122	6.1110
9.4948	6.2446
9.4774	6.3902
9.4601	6.5956
9.4429	6.8795
9.4257	7.2371
9.4086	7.7758
9.3916	8.4190
9.3746	9.0755
9.3577	9.6794
9.3408	10.247
9.3240	10.725
9.3073	11.041
9.2906	11.155
9.2740	11.166
9.2574	11.127
9.2409	11.118
9.2245	11.052
9.2081	10.991
9.1918	10.993
9.1755	10.909
9.1593	10.760
9.1431	10.615
9.1270	10.554
9.1110	10.496
9.0950	10.459
9.0791	10.446
9.0632	10.452
9.0474	10.482
9.0316	10.491
9.0159	10.513
9.0003	10.541
8.9847	10.516
8.9691	10.510
8.9536	10.613
8.9382	10.719
8.9228	10.731
8.9075	10.738
8.8922	10.758
8.8770	10.757
8.8618	10.717
8.8467	10.684
8.8316	10.650
8.8166	10.610
8.8016	10.557
8.7867	10.438
8.7718	10.352
8.7570	10.306
8.7422	10.234
8.7275	10.101
8.7129	9.9612
8.6982	9.7990
8.6837	9.5498
8.6692	9.1681
8.6547	8.5514
8.6403	7.9352
8.6259	7.6605
8.6116	7.8803
8.5973	8.4250
8.5830	8.9796
8.5688	9.4286
8.5547	9.7658
8.5406	10.003
8.5266	10.158
8.5126	10.239
8.4986	10.278
8.4847	10.281
8.4708	10.312
8.4570	10.373
8.4432	10.408
8.4295	10.492
8.4158	10.566
8.4022	10.622
8.3886	10.747
8.3750	10.901
8.3615	11.016
8.3481	11.132
8.3347	11.348
8.3213	11.622
8.3079	11.867
8.2946	12.154
8.2814	12.497
8.2682	12.925
8.2550	13.410
8.2419	13.918
8.2288	14.446
8.2158	15.010
8.2028	15.503
8.1898	15.902
8.1769	16.258
8.1640	16.474
8.1512	16.519
8.1384	16.443
8.1256	16.230
8.1129	16.042
8.1002	15.833
8.0876	15.550
8.0750	15.325
8.0624	15.124
8.0499	14.990
8.0374	14.922
8.0250	14.907
8.0126	14.924
8.0002	14.916
7.9879	14.879
7.9756	14.823
7.9634	14.727
7.9512	14.533
7.9390	14.303
7.9268	14.051
7.9147	13.785
7.9027	13.547
7.8906	13.357
7.8786	13.279
7.8667	13.241
7.8548	13.181
7.8429	13.133
7.8310	13.049
7.8192	12.935
7.8075	12.863
7.7957	12.930
7.7840	13.062
7.7723	13.195
7.7607	13.327
7.7491	13.462
7.7375	13.549
7.7260	13.560
7.7145	13.538
7.7031	13.476
7.6916	13.374
7.6802	13.263
7.6689	13.148
7.6575	12.986
7.6462	12.736
7.6350	12.515
7.6238	12.302
7.6126	12.121
7.6014	11.989
7.5903	11.900
7.5792	11.874
7.5681	11.851
7.5571	11.843
7.5461	11.875
7.5351	11.851
7.5242	11.812
7.5133	11.762
7.5024	11.687
7.4916	11.607
7.4807	11.471
7.4700	11.291
7.4592	11.150
7.4485	11.016
7.4378	10.813
7.4272	10.632
7.4165	10.477
7.4059	10.313
7.3954	10.133
7.3848	9.9079
7.3743	9.6408
7.3639	9.3291
7.3534	9.0004
7.3430	8.6258
7.3326	8.2523
7.3223	7.8689
7.3119	7.5056
7.3016	7.1215
7.2914	6.7322
7.2811	6.4191
7.2709	6.1700
7.2607	5.9107
7.2506	5.6689
7.2404	5.4577
7.2303	5.2810
7.2203	5.1034
7.2102	4.9225
7.2002	4.7868
7.1902	4.7003
7.1803	4.6118
7.1703	4.5933
7.1604	4.6205
7.1506	4.6515
7.1407	4.6899
7.1309	4.7306
7.1211	4.8789
7.1113	5.0520
7.1016	5.2009
7.0919	5.2791
7.0822	5.2874
7.0725	5.2729
7.0629	5.2729
7.0533	5.2147
7.0437	5.1117
7.0341	5.0702
7.0246	5.0544
7.0151	5.0132
7.0056	4.9608
6.9962	4.9338
6.9867	4.8834
6.9773	4.8533
6.9679	4.8464
6.9586	4.8244
6.9493	4.8033
6.9400	4.8173
6.9307	4.8443
6.9214	4.8256
6.9122	4.8107
6.9030	4.8358
6.8938	4.8403
6.8847	4.8429
6.8755	4.8656
6.8664	4.8476
6.8573	4.8159
6.8483	4.8263
6.8393	4.8325
6.8302	4.8533
6.8213	4.8784
6.8123	4.8796
6.8034	4.9035
6.7944	4.9201
6.7855	4.9139
6.7767	4.9196
6.7678	4.9528
6.7590	4.9746
6.7502	4.9608
6.7414	4.9779
6.7327	5.0191
6.7239	5.0603
6.7152	5.1465
6.7065	5.2052
6.6979	5.2384
6.6892	5.3407
6.6806	5.4411
6.6720	5.5183
6.6634	5.6348
6.6549	5.7660
6.6464	5.8853
6.6378	5.9725
6.6294	6.0819
6.6209	6.2401
6.6124	6.4130
6.6040	6.5304
6.5956	6.6891
6.5872	6.8506
6.5789	6.9749
6.5705	7.1019
6.5622	7.2300
6.5539	7.3678
6.5456	7.5298
6.5374	7.7060
6.5292	7.9312
6.5209	8.1607
6.5128	8.4117
6.5046	8.6978
6.4964	9.0104
6.4883	9.3310
6.4802	9.6943
6.4721	10.098
6.4640	10.513
6.4560	10.863
6.4480	11.144
6.4399	11.313
6.4320	11.341
6.4240	11.192
6.4160	10.951
6.4081	10.731
6.4002	10.473
6.3923	10.155
6.3844	9.8482
6.3766	9.5243
6.3687	9.1733
6.3609	8.8337
6.3531	8.4628
6.3454	8.0198
6.3376	7.6004
6.3299	7.2046
6.3221	6.8473
6.3144	6.5508
6.3068	6.2690
6.2991	6.0040
6.2914	5.8077
6.2838	5.7115
6.2762	5.6069
6.2686	5.4574
6.2611	5.2933
6.2535	5.1344
6.2460	5.0295
6.2385	4.9336
6.2310	4.8457
6.2235	4.8069
6.2160	4.7474
6.2086	4.6800
6.2011	4.6615
6.1937	4.7292
6.1863	4.8486
6.1790	5.0191
6.1716	5.2237
6.1643	5.4584
6.1570	5.7186
6.1496	6.0116
6.1424	6.3159
6.1351	6.6455
6.1278	6.9124
6.1206	7.1696
6.1134	7.4782
6.1062	7.7273
6.0990	7.9279
6.0918	8.1782
6.0847	8.3814
6.0776	8.5254
6.0704	8.6736
6.0633	8.7598
6.0563	8.8278
6.0492	8.9024
6.0421	9.0236
6.0351	9.1432
6.0281	9.2422
6.0211	9.3106
6.0141	9.3817
6.0071	9.4314
6.0002	9.3947
5.9932	9.2848
5.9863	9.1553
5.9794	9.0423
5.9725	8.9213
5.9657	8.7747
5.9588	8.6646
5.9520	8.6045
5.9451	8.5803
5.9383	8.5663
5.9315	8.6765
5.9247	8.9066
5.9180	9.1674
5.9112	9.4587
5.9045	9.7748
5.8978	10.087
5.8911	10.428
5.8844	10.765
5.8777	11.093
5.8711	11.447
5.8644	11.760
5.8578	12.015
5.8512	12.280
5.8446	12.560
5.8380	12.799
5.8314	13.021
5.8249	13.194
5.8184	13.390
5.8118	13.611
5.8053	13.798
5.7988	13.967
5.7923	14.133
5.7859	14.314
5.7794	14.450
5.7730	14.533
5.7666	14.623
5.7602	14.773
5.7538	14.963
5.7474	15.170
5.7410	15.379
5.7347	15.609
5.7283	15.827
5.7220	16.004
5.7157	16.138
5.7094	16.298
5.7031	16.428
5.6969	16.481
5.6906	16.455
5.6844	16.355
5.6782	16.257
5.6719	16.116
5.6657	15.881
5.6596	15.557
5.6534	15.186
5.6472	14.743
5.6411	14.252
5.6349	13.771
5.6288	13.244
5.6227	12.736
5.6166	12.182
5.6106	11.486
5.6045	10.665
5.5984	9.6877
5.5924	8.5254
5.5864	7.1997
5.5804	6.0712
5.5744	5.5488
5.5684	5.4624
5.5624	5.4922
5.5564	5.8441
5.5505	6.8165
5.5445	8.3075
5.5386	9.9662
5.5327	11.444
5.5268	12.606
5.5209	13.568
5.5151	14.411
5.5092	15.150
5.5033	15.779
5.4975	16.411
5.4917	16.994
5.4859	17.533
5.4801	18.036
5.4743	18.472
5.4685	18.868
5.4628	19.225
5.4570	19.501
5.4513	19.651
5.4455	19.682
5.4398	19.607
5.4341	19.408
5.4284	19.011
5.4228	18.461
5.4171	17.852
5.4114	17.153
5.4058	16.376
5.4002	15.551
5.3945	14.717
5.3889	13.877
5.3833	13.117
5.3778	12.523
5.3722	12.038
5.3666	11.670
5.3611	11.390
5.3555	11.206
5.3500	11.137
5.3445	11.142
5.3390	11.201
5.3335	11.316
5.3280	11.431
5.3225	11.536
5.3171	11.654
5.3116	11.823
5.3062	12.024
5.3008	12.216
5.2954	12.458
5.2900	12.752
5.2846	13.111
5.2792	13.479
5.2738	13.891
5.2684	14.390
5.2631	14.954
5.2578	15.538
5.2524	16.180
5.2471	16.878
5.2418	17.649
5.2365	18.518
5.2312	19.387
5.2260	20.194
5.2207	20.962
5.2154	21.633
5.2102	22.175
5.2050	22.564
5.1998	22.795
5.1945	22.945
5.1893	22.992
5.1842	22.946
5.1790	22.892
5.1738	22.842
5.1686	22.812
5.1635	22.777
5.1584	22.689
5.1532	22.579
5.1481	22.480
5.1430	22.416
5.1379	22.354
5.1328	22.309
5.1277	22.293
5.1227	22.283
5.1176	22.266
5.1126	22.214
5.1075	22.029
5.1025	21.748
5.0975	21.513
5.0925	21.367
5.0875	21.211
5.0825	20.995
5.0775	20.766
5.0726	20.567
5.0676	20.433
5.0627	20.332
5.0577	20.268
5.0528	20.231
5.0479	20.186
5.0430	20.150
5.0380	20.100
5.0332	20.045
5.0283	19.933
5.0234	19.799
5.0185	19.726
5.0137	19.669
5.0088	19.678
5.0040	19.804
4.9992	19.996
4.9944	20.198
4.9896	20.469
4.9848	20.802
4.9800	21.230
4.9752	21.795
4.9704	22.444
4.9657	23.164
4.9609	23.880
4.9562	24.544
4.9514	25.073
4.9467	25.479
4.9420	25.802
4.9373	26.074
4.9326	26.399
4.9279	26.786
4.9232	27.285
4.9186	27.962
4.9139	28.774
4.9092	29.753
4.9046	30.839
4.9000	31.989
4.8953	33.152
4.8907	34.237
4.8861	35.204
4.8815	36.062
4.8769	36.797
4.8723	37.413
4.8678	37.972
4.8632	38.532
4.8586	39.041
4.8541	39.470
4.8495	39.821
4.8450	40.140
4.8405	40.410
4.8360	40.627
4.8315	40.831
4.8270	41.030
4.8225	41.218
4.8180	41.374
4.8135	41.525
4.8090	41.632
4.8046	41.735
4.8001	41.896
4.7957	42.089
4.7913	42.273
4.7868	42.435
4.7824	42.598
4.7780	42.742
4.7736	42.913
4.7692	43.061
4.7648	43.143
4.7605	43.208
4.7561	43.285
4.7517	43.325
4.7474	43.326
4.7431	43.325
4.7387	43.271
4.7344	43.177
4.7301	43.050
4.7258	42.856
4.7215	42.548
4.7172	42.158
4.7129	41.685
4.7086	41.136
4.7043	40.558
4.7000	39.960
4.6958	39.385
4.6915	38.842
4.6873	38.402
4.6831	38.111
4.6788	38.021
4.6746	38.060
4.6704	38.177
4.6662	38.396
4.6620	38.669
4.6578	39.009
4.6536	39.442
4.6495	39.966
4.6453	40.578
4.6411	41.150
4.6370	41.705
4.6328	42.270
4.6287	42.744
4.6246	43.091
4.6205	43.404
4.6163	43.737
4.6122	44.027
4.6081	44.239
4.6040	44.432
4.6000	44.601
4.5959	44.753
4.5918	44.865
4.5877	44.905
4.5837	44.971
4.5796	45.038
4.5756	45.075
4.5716	45.079
4.5675	45.063
4.5635	45.052
4.5595	45.042
4.5555	45.001
4.5515	44.901
4.5475	44.815
4.5435	44.730
4.5395	44.598
4.5356	44.420
4.5316	44.232
4.5276	44.040
4.5237	43.822
4.5197	43.606
4.5158	43.363
4.5119	43.070
4.5080	42.777
4.5040	42.501
4.5001	42.292
4.4962	42.148
4.4923	42.032
4.4884	41.939
4.4846	41.902
4.4807	41.881
4.4768	41.845
4.4730	41.816
4.4691	41.823
4.4652	41.911
4.4614	42.064
4.4576	42.225
4.4537	42.439
4.4499	42.707
4.4461	42.923
4.4423	43.090
4.4385	43.243
4.4347	43.388
4.4309	43.553
4.4271	43.707
4.4233	43.861
4.4196	44.016
4.4158	44.185
4.4120	44.335
4.4083	44.502
4.4045	44.695
4.4008	44.847
4.3971	44.999
4.3934	45.206
4.3896	45.392
4.3859	45.562
4.3822	45.763
4.3785	45.932
4.3748	46.089
4.3711	46.228
4.3674	46.357
4.3638	46.485
4.3601	46.560
4.3564	46.610
4.3528	46.673
4.3491	46.722
4.3455	46.737
4.3418	46.751
4.3382	46.840
4.3346	46.888
4.3310	46.869
4.3273	46.862
4.3237	46.860
4.3201	46.829
4.3165	46.780
4.3129	46.741
4.3094	46.692
4.3058	46.658
4.3022	46.600
4.2986	46.530
4.2951	46.498
4.2915	46.419
4.2880	46.333
4.2844	46.285
4.2809	46.201
4.2774	46.123
4.2738	46.058
4.2703	46.029
4.2668	46.048
4.2633	46.095
4.2598	46.167
4.2563	46.262
4.2528	46.347
4.2493	46.437
4.2458	46.501
4.2424	46.529
4.2389	46.566
4.2354	46.615
4.2320	46.636
4.2285	46.661
4.2251	46.713
4.2216	46.766
4.2182	46.778
4.2148	46.778
4.2113	46.796
4.2079	46.776
4.2045	46.740
4.2011	46.710
4.1977	46.696
4.1943	46.702
4.1909	46.695
4.1875	46.703
4.1841	46.706
4.1808	46.698
4.1774	46.680
4.1740	46.626
4.1707	46.609
4.1673	46.600
4.1640	46.587
4.1606	46.557
4.1573	46.482
4.1540	46.441
4.1506	46.403
4.1473	46.343
4.1440	46.257
4.1407	46.178
4.1374	46.093
4.1341	45.998
4.1308	45.873
4.1275	45.753
4.1242	45.650
4.1209	45.529
4.1177	45.414
4.1144	45.290
4.1111	45.143
4.1079	45.009
4.1046	44.886
4.1014	44.716
4.0981	44.541
4.0949	44.381
4.0917	44.195
4.0884	43.973
4.0852	43.712
4.0820	43.432
4.0788	43.153
4.0756	42.865
4.0724	42.492
4.0692	42.082
4.0660	41.708
4.0628	41.308
4.0596	40.863
4.0565	40.354
4.0533	39.737
4.0501	38.983
4.0470	38.039
4.0438	36.942
4.0406	35.728
4.0375	34.442
4.0344	33.162
4.0312	31.969
4.0281	30.832
4.0250	29.702
4.0218	28.650
4.0187	27.687
4.0156	26.726
4.0125	25.667
4.0094	24.485
4.0063	23.204
4.0032	21.871
4.0001	20.591
3.9970	19.408
3.9940	18.339
3.9909	17.443
3.9878	16.708
3.9847	16.164
3.9817	15.875
3.9786	15.816
3.9756	15.882
3.9725	16.012
3.9695	16.225
3.9665	16.529
3.9634	16.940
3.9604	17.514
3.9574	18.236
3.9544	19.086
3.9513	20.100
3.9483	21.206
3.9453	22.369
3.9423	23.658
3.9393	24.895
3.9363	25.809
3.9333	26.283
3.9304	26.477
3.9274	26.673
3.9244	26.982
3.9214	27.270
3.9185	27.517
3.9155	27.751
3.9126	27.926
3.9096	28.052
3.9067	28.160
3.9037	28.270
3.9008	28.380
3.8979	28.461
3.8949	28.547
3.8920	28.642
3.8891	28.728
3.8862	28.828
3.8833	28.909
3.8804	28.966
3.8775	29.014
3.8746	29.076
3.8717	29.143
3.8688	29.166
3.8659	29.205
3.8630	29.282
3.8601	29.387
3.8573	29.497
3.8544	29.612
3.8515	29.772
3.8487	29.933
3.8458	30.134
3.8430	30.404
3.8401	30.747
3.8373	31.208
3.8344	31.802
3.8316	32.482
3.8288	33.212
3.8259	33.944
3.8231	34.638
3.8203	35.336
3.8175	36.065
3.8147	36.822
3.8119	37.540
3.8091	38.291
3.8063	39.148
3.8035	40.023
3.8007	40.874
3.7979	41.723
3.7951	42.581
3.7924	43.366
3.7896	44.024
3.7868	44.513
3.7841	44.880
3.7813	45.180
3.7785	45.381
3.7758	45.543
3.7730	45.705
3.7703	45.774
3.7676	45.823
3.7648	45.932
3.7621	46.026
3.7594	46.073
3.7566	46.105
3.7539	46.131
3.7512	46.148
3.7485	46.143
3.7458	46.190
3.7431	46.249
3.7404	46.269
3.7377	46.340
3.7350	46.407
3.7323	46.441
3.7296	46.473
3.7269	46.503
3.7242	46.554
3.7216	46.572
3.7189	46.587
3.7162	46.632
3.7136	46.661
3.7109	46.675
3.7083	46.684
3.7056	46.695
3.7030	46.704
3.7003	46.732
3.6977	46.775
3.6950	46.750
3.6924	46.794
3.6898	46.842
3.6872	46.824
3.6845	46.817
3.6819	46.795
3.6793	46.767
3.6767	46.791
3.6741	46.813
3.6715	46.794
3.6689	46.749
3.6663	46.710
3.6637	46.720
3.6611	46.714
3.6585	46.651
3.6560	46.593
3.6534	46.569
3.6508	46.545
3.6482	46.521
3.6457	46.502
3.6431	46.480
3.6406	46.398
3.6380	46.347
3.6355	46.342
3.6329	46.286
3.6304	46.230
3.6278	46.180
3.6253	46.128
3.6227	46.085
3.6202	46.048
3.6177	45.988
3.6152	45.894
3.6127	45.836
3.6101	45.768
3.6076	45.680
3.6051	45.569
3.6026	45.497
3.6001	45.400
3.5976	45.258
3.5951	45.086
3.5926	44.933
3.5901	44.753
3.5876	44.552
3.5852	44.306
3.5827	44.056
3.5802	43.794
3.5777	43.494
3.5753	43.166
3.5728	42.895
3.5704	42.771
3.5679	42.711
3.5654	42.606
3.5630	42.491
3.5605	42.354
3.5581	42.177
3.5557	41.978
3.5532	41.727
3.5508	41.419
3.5484	41.072
3.5459	40.720
3.5435	40.308
3.5411	39.840
3.5387	39.366
3.5363	38.793
3.5338	38.091
3.5314	37.311
3.5290	36.420
3.5266	35.363
3.5242	34.189
3.5218	33.009
3.5195	31.886
3.5171	30.902
3.5147	30.069
3.5123	29.357
3.5099	28.750
3.5075	28.266
3.5052	27.846
3.5028	27.421
3.5004	26.952
3.4981	26.529
3.4957	26.128
3.4934	25.681
3.4910	25.192
3.4887	24.713
3.4863	24.339
3.4840	23.983
3.4816	23.647
3.4793	23.394
3.4770	23.368
3.4746	23.630
3.4723	24.202
3.4700	25.089
3.4677	26.187
3.4653	27.272
3.4630	28.210
3.4607	28.940
3.4584	29.464
3.4561	29.809
3.4538	30.073
3.4515	30.249
3.4492	30.334
3.4469	30.410
3.4446	30.514
3.4423	30.634
3.4400	30.707
3.4378	30.752
3.4355	30.813
3.4332	30.864
3.4309	30.903
3.4287	30.867
3.4264	30.846
3.4241	30.848
3.4219	30.811
3.4196	30.730
3.4174	30.714
3.4151	30.702
3.4129	30.630
3.4106	30.589
3.4084	30.563
3.4061	30.448
3.4039	30.337
3.4017	30.273
3.3994	30.200
3.3972	30.148
3.3950	30.071
3.3928	29.983
3.3906	29.916
3.3883	29.817
3.3861	29.695
3.3839	29.546
3.3817	29.423
3.3795	29.345
3.3773	29.259
3.3751	29.190
3.3729	29.147
3.3707	29.087
3.3685	29.004
3.3663	28.859
3.3641	28.622
3.3620	28.309
3.3598	27.925
3.3576	27.478
3.3554	27.084
3.3533	26.848
3.3511	26.791
3.3489	26.978
3.3468	27.573
3.3446	28.714
3.3425	30.318
3.3403	32.185
3.3382	33.974
3.3360	35.445
3.3339	36.630
3.3317	37.542
3.3296	38.206
3.3274	38.719
3.3253	39.125
3.3232	39.486
3.3210	39.825
3.3189	40.074
3.3168	40.270
3.3147	40.448
3.3126	40.563
3.3104	40.731
3.3083	40.835
3.3062	40.895
3.3041	40.977
3.3020	41.108
3.2999	41.193
3.2978	41.209
3.2957	41.259
3.2936	41.328
3.2915	41.380
3.2894	41.425
3.2874	41.457
3.2853	41.467
3.2832	41.444
3.2811	41.446
3.2790	41.461
3.2770	41.484
3.2749	41.537
3.2728	41.584
3.2708	41.565
3.2687	41.542
3.2666	41.532
3.2646	41.533
3.2625	41.514
3.2605	41.529
3.2584	41.539
3.2564	41.501
3.2543	41.510
3.2523	41.487
3.2503	41.429
3.2482	41.429
3.2462	41.421
3.2442	41.362
3.2421	41.329
3.2401	41.346
3.2381	41.339
3.2361	41.295
3.2340	41.261
3.2320	41.239
3.2300	41.193
3.2280	41.179
3.2260	41.159
3.2240	41.098
3.2220	41.103
3.2200	41.069
3.2180	40.957
3.2160	40.933
3.2140	40.913
3.2120	40.882
3.2100	40.848
3.2080	40.801
3.2060	40.745
3.2040	40.662
3.2021	40.648
3.2001	40.603
3.1981	40.543
3.1961	40.524
3.1942	40.458
3.1922	40.412
3.1902	40.396
3.1883	40.345
3.1863	40.269
3.1844	40.229
3.1824	40.175
3.1805	40.114
3.1785	40.039
3.1766	39.977
3.1746	39.949
3.1727	39.877
3.1707	39.781
3.1688	39.719
3.1669	39.627
3.1649	39.515
3.1630	39.427
3.1611	39.313
3.1591	39.194
3.1572	39.094
3.1553	39.060
3.1534	39.014
3.1515	38.901
3.1495	38.823
3.1476	38.854
3.1457	38.792
3.1438	38.670
3.1419	38.651
3.1400	38.658
3.1381	38.590
3.1362	38.546
3.1343	38.562
3.1324	38.497
3.1305	38.448
3.1286	38.402
3.1268	38.316
3.1249	38.265
3.1230	38.169
3.1211	38.120
3.1192	38.100
3.1174	38.004
3.1155	37.870
3.1136	37.775
3.1117	37.701
3.1099	37.674
3.1080	37.606
3.1061	37.555
3.1043	37.503
3.1024	37.493
3.1006	37.514
3.0987	37.491
3.0969	37.462
3.0950	37.463
3.0932	37.443
3.0913	37.425
3.0895	37.368
3.0876	37.332
3.0858	37.375
3.0840	37.419
3.0821	37.371
3.0803	37.319
3.0785	37.290
3.0766	37.276
3.0748	37.271
3.0730	37.275
3.0712	37.246
3.0694	37.197
3.0675	37.195
3.0657	37.130
3.0639	37.043
3.0621	37.006
3.0603	36.971
3.0585	36.996
3.0567	36.972
3.0549	36.880
3.0531	36.860
3.0513	36.890
3.0495	36.850
3.0477	36.788
3.0459	36.729
3.0441	36.694
3.0423	36.702
3.0406	36.672
3.0388	36.624
3.0370	36.592
3.0352	36.587
3.0334	36.526
3.0317	36.492
3.0299	36.517
3.0281	36.480
3.0264	36.395
3.0246	36.344
3.0228	36.336
3.0211	36.358
3.0193	36.328
3.0176	36.243
3.0158	36.194
3.0140	36.201
3.0123	36.164
3.0105	36.125
3.0088	36.161
3.0070	36.168
3.0053	36.100
3.0036	36.100
3.0018	36.092
3.0001	35.995
2.9984	36.009
2.9966	36.061
2.9949	36.028
2.9932	36.000
2.9914	35.991
2.9897	35.992
2.9880	35.974
2.9863	35.958
2.9845	35.861
2.9828	35.792
2.9811	35.784
2.9794	35.755
2.9777	35.689
2.9760	35.635
2.9743	35.635
2.9726	35.614
2.9709	35.556
2.9692	35.430
2.9675	35.355
2.9658	35.300
2.9641	35.236
2.9624	35.184
2.9607	35.133
2.9590	35.065
2.9573	35.103
2.9556	35.133
2.9539	35.131
2.9523	35.248
2.9506	35.330
2.9489	35.279
2.9472	35.288
2.9455	35.328
2.9439	35.330
2.9422	35.354
2.9405	35.394
2.9389	35.420
2.9372	35.444
2.9355	35.420
2.9339	35.377
2.9322	35.381
2.9306	35.423
2.9289	35.446
2.9272	35.416
2.9256	35.420
2.9239	35.403
2.9223	35.382
2.9207	35.465
2.9190	35.529
2.9174	35.480
2.9157	35.508
2.9141	35.544
2.9124	35.558
2.9108	35.566
2.9092	35.591
2.9075	35.628
2.9059	35.643
2.9043	35.605
2.9027	35.628
2.9010	35.722
2.8994	35.807
2.8978	35.815
2.8962	35.829
2.8946	35.889
2.8929	35.905
2.8913	35.905
2.8897	35.917
2.8881	35.998
2.8865	36.050
2.8849	36.035
2.8833	36.028
2.8817	36.016
2.8801	35.999
2.8785	36.023
2.8769	36.029
2.8753	36.053
2.8737	36.054
2.8721	36.067
2.8705	36.096
2.8689	36.108
2.8673	36.104
2.8658	36.082
2.8642	36.112
2.8626	36.160
2.8610	36.131
2.8594	36.164
2.8579	36.250
2.8563	36.239
2.8547	36.192
2.8531	36.216
2.8516	36.194
2.8500	36.204
2.8484	36.239
2.8469	36.162
2.8453	36.126
2.8437	36.118
2.8422	36.106
2.8406	36.099
2.8391	36.031
2.8375	36.010
2.8360	36.027
2.8344	36.001
2.8329	35.927
2.8313	35.881
2.8298	35.863
2.8282	35.817
2.8267	35.715
2.8252	35.687
2.8236	35.711
2.8221	35.682
2.8205	35.609
2.8190	35.566
2.8175	35.528
2.8159	35.441
2.8144	35.375
2.8129	35.284
2.8114	35.220
2.8098	35.193
2.8083	35.162
2.8068	35.081
2.8053	34.940
2.8038	34.805
2.8022	34.739
2.8007	34.652
2.7992	34.495
2.7977	34.372
2.7962	34.247
2.7947	34.062
2.7932	33.887
2.7917	33.667
2.7902	33.439
2.7887	33.269
2.7872	33.087
2.7857	32.897
2.7842	32.775
2.7827	32.635
2.7812	32.464
2.7797	32.281
2.7782	32.124
2.7767	31.964
2.7752	31.785
2.7738	31.620
2.7723	31.482
2.7708	31.345
2.7693	31.317
2.7678	31.259
2.7664	31.171
2.7649	31.133
2.7634	31.086
2.7619	31.031
2.7605	31.111
2.7590	31.303
2.7575	31.467
2.7561	31.529
2.7546	31.742
2.7531	32.057
2.7517	32.354
2.7502	32.642
2.7488	32.884
2.7473	33.178
2.7458	33.538
2.7444	33.843
2.7429	34.106
2.7415	34.361
2.7400	34.660
2.7386	35.053
2.7371	35.465
2.7357	35.832
2.7343	36.274
2.7328	36.774
2.7314	37.239
2.7299	37.672
2.7285	38.128
2.7271	38.646
2.7256	39.025
2.7242	39.423
2.7228	39.958
2.7213	40.417
2.7199	40.840
2.7185	41.325
2.7171	41.708
2.7156	42.082
2.7142	42.409
2.7128	42.637
2.7114	42.723
2.7100	42.892
2.7085	43.126
2.7071	43.328
2.7057	43.476
2.7043	43.628
2.7029	43.838
2.7015	44.074
2.7001	44.311
2.6987	44.476
2.6973	44.568
2.6959	44.623
2.6945	44.672
2.6931	44.791
2.6917	44.907
2.6903	44.982
2.6889	45.063
2.6875	45.107
2.6861	45.107
2.6847	45.121
2.6833	45.175
2.6819	45.254
2.6805	45.234
2.6791	45.168
2.6778	45.203
2.6764	45.212
2.6750	45.235
2.6736	45.255
2.6722	45.235
2.6709	45.100
2.6695	45.136
2.6681	45.235
2.6667	45.166
2.6654	45.133
2.6640	45.217
2.6626	45.340
2.6613	45.357
2.6599	45.307
2.6585	45.328
2.6572	45.331
2.6558	45.275
2.6545	45.317
2.6531	45.282
2.6517	45.222
2.6504	45.258
2.6490	45.308
2.6477	45.309
2.6463	45.241
2.6450	45.233
2.6436	45.304
2.6423	45.285
2.6409	45.216
2.6396	45.237
2.6382	45.261
2.6369	45.245
2.6356	45.191
2.6342	45.133
2.6329	45.169
2.6315	45.136
2.6302	45.054
2.6289	45.117
2.6275	45.146
2.6262	45.108
2.6249	45.154
2.6236	45.151
2.6222	45.105
2.6209	45.050
2.6196	45.029
2.6183	45.043
2.6169	45.014
2.6156	45.041
2.6143	45.076
2.6130	45.084
2.6117	45.052
2.6103	44.943
2.6090	44.902
2.6077	44.920
2.6064	44.874
2.6051	44.766
2.6038	44.836
2.6025	44.947
2.6012	44.963
2.5999	44.960
2.5986	44.970
2.5973	44.875
2.5960	44.680
2.5947	44.535
2.5934	44.647
2.5921	44.852
2.5908	44.882
2.5895	44.828
2.5882	44.801
2.5869	44.771
2.5856	44.739
2.5843	44.706
2.5830	44.727
2.5817	44.776
2.5805	44.738
2.5792	44.698
2.5779	44.647
2.5766	44.629
2.5753	44.662
2.5741	44.617
2.5728	44.560
2.5715	44.584
2.5702	44.557
2.5690	44.554
2.5677	44.575
2.5664	44.529
2.5651	44.457
2.5639	44.419
2.5626	44.291
2.5613	44.268
2.5601	44.285
2.5588	44.256
2.5575	44.207
2.5563	44.212
2.5550	44.138
2.5538	43.996
2.5525	43.909
2.5513	43.838
2.5500	43.771
2.5487	43.694
2.5475	43.567
2.5462	43.487
2.5450	43.429
2.5437	43.359
2.5425	43.256
2.5413	43.193
2.5400	43.127
2.5388	43.063
2.5375	43.030
2.5363	42.982
2.5350	42.957
2.5338	43.012
2.5326	43.066
2.5313	43.080
2.5301	43.102
2.5289	43.132
2.5276	43.161
2.5264	43.196
2.5252	43.233
2.5239	43.255
2.5227	43.335
2.5215	43.373
2.5202	43.389
2.5190	43.463
2.5178	43.458
2.5166	43.438
2.5154	43.447
2.5141	43.495
2.5129	43.499
2.5117	43.493
2.5105	43.531
2.5093	43.507
2.5081	43.505
2.5068	43.515
2.5056	43.540
2.5044	43.566
2.5032	43.508
2.5020	43.455
2.5008	43.457
2.4996	43.460
2.4984	43.474
2.4972	43.494
2.4960	43.501
2.4948	43.461
2.4936	43.467
2.4924	43.530
2.4912	43.547
2.4900	43.482
2.4888	43.473
2.4876	43.525
2.4864	43.513
2.4852	43.505
2.4840	43.499
2.4828	43.477
2.4816	43.481
2.4805	43.536
2.4793	43.584
2.4781	43.596
2.4769	43.578
2.4757	43.568
2.4745	43.584
2.4734	43.598
2.4722	43.631
2.4710	43.616
2.4698	43.619
2.4686	43.657
2.4675	43.683
2.4663	43.638
2.4651	43.634
2.4640	43.666
2.4628	43.684
2.4616	43.744
2.4604	43.788
2.4593	43.800
2.4581	43.748
2.4569	43.675
2.4558	43.692
2.4546	43.792
2.4535	43.836
2.4523	43.776
2.4511	43.757
2.4500	43.734
2.4488	43.743
2.4477	43.757
2.4465	43.777
2.4454	43.748
2.4442	43.726
2.4431	43.711
2.4419	43.678
2.4408	43.717
2.4396	43.757
2.4385	43.761
2.4373	43.720
2.4362	43.733
2.4350	43.748
2.4339	43.677
2.4327	43.657
2.4316	43.727
2.4305	43.719
2.4293	43.683
2.4282	43.709
2.4270	43.740
2.4259	43.724
2.4248	43.684
2.4236	43.683
2.4225	43.690
2.4214	43.674
2.4202	43.672
2.4191	43.699
2.4180	43.757
2.4169	43.738
2.4157	43.660
2.4146	43.672
2.4135	43.655
2.4124	43.641
2.4112	43.647
2.4101	43.629
2.4090	43.675
2.4079	43.654
2.4068	43.630
2.4056	43.617
2.4045	43.588
2.4034	43.570
2.4023	43.571
2.4012	43.555
2.4001	43.516
2.3990	43.521
2.3979	43.549
2.3967	43.539
2.3956	43.525
2.3945	43.556
2.3934	43.557
2.3923	43.465
2.3912	43.409
2.3901	43.453
2.3890	43.484
2.3879	43.416
2.3868	43.393
2.3857	43.410
2.3846	43.431
2.3835	43.438
2.3824	43.399
2.3813	43.420
2.3802	43.425
2.3791	43.361
2.3781	43.333
2.3770	43.320
2.3759	43.343
2.3748	43.304
2.3737	43.314
2.3726	43.347
2.3715	43.299
2.3704	43.236
2.3694	43.215
2.3683	43.237
2.3672	43.235
2.3661	43.208
2.3650	43.167
2.3640	43.078
2.3629	43.005
2.3618	43.019
2.3607	43.009
2.3597	43.001
2.3586	42.961
2.3575	42.924
2.3564	42.924
2.3554	42.895
2.3543	42.830
2.3532	42.794
2.3522	42.768
2.3511	42.739
2.3500	42.725
2.3490	42.680
2.3479	42.657
2.3468	42.660
2.3458	42.655
2.3447	42.615
2.3436	42.556
2.3426	42.567
2.3415	42.552
2.3405	42.510
2.3394	42.473
2.3384	42.481
2.3373	42.500
2.3363	42.509
2.3352	42.524
2.3342	42.558
2.3331	42.570
2.3321	42.552
2.3310	42.531
2.3300	42.543
2.3289	42.578
2.3279	42.598
2.3268	42.572
2.3258	42.544
2.3247	42.571
2.3237	42.554
2.3226	42.565
2.3216	42.583
2.3206	42.625
2.3195	42.636
2.3185	42.610
2.3175	42.620
2.3164	42.634
2.3154	42.633
2.3144	42.650
2.3133	42.682
2.3123	42.623
2.3113	42.595
2.3102	42.636
2.3092	42.702
2.3082	42.730
2.3071	42.674
2.3061	42.644
2.3051	42.605
2.3041	42.565
2.3030	42.576
2.3020	42.603
2.3010	42.593
2.3000	42.566
2.2990	42.581
2.2979	42.641
2.2969	42.580
2.2959	42.470
2.2949	42.416
2.2939	42.520
2.2929	42.635
2.2918	42.621
2.2908	42.603
2.2898	42.563
2.2888	42.527
2.2878	42.497
2.2868	42.491
2.2858	42.485
2.2848	42.523
2.2838	42.565
2.2828	42.542
2.2818	42.562
2.2808	42.538
2.2798	42.504
2.2787	42.530
2.2777	42.566
2.2767	42.554
2.2757	42.534
2.2747	42.537
2.2738	42.529
2.2728	42.526
2.2718	42.531
2.2708	42.499
2.2698	42.520
2.2688	42.493
2.2678	42.479
2.2668	42.473
2.2658	42.451
2.2648	42.457
2.2638	42.425
2.2628	42.420
2.2618	42.402
2.2609	42.407
2.2599	42.427
2.2589	42.383
2.2579	42.367
2.2569	42.463
2.2559	42.446
2.2550	42.384
2.2540	42.412
2.2530	42.423
2.2520	42.436
2.2510	42.401
2.2501	42.404
2.2491	42.398
2.2481	42.367
2.2471	42.332
2.2462	42.387
2.2452	42.405
2.2442	42.379
2.2433	42.325
2.2423	42.245
2.2413	42.342
2.2403	42.392
2.2394	42.293
2.2384	42.288
2.2374	42.355
2.2365	42.307
2.2355	42.204
2.2345	42.168
2.2336	42.217
2.2326	42.242
2.2317	42.296
2.2307	42.266
2.2297	42.233
2.2288	42.307
2.2278	42.300
2.2269	42.253
2.2259	42.259
2.2250	42.257
2.2240	42.196
2.2231	42.186
2.2221	42.156
2.2211	42.171
2.2202	42.186
2.2192	42.121
2.2183	42.112
2.2173	42.166
2.2164	42.154
2.2155	42.167
2.2145	42.160
2.2136	42.056
2.2126	42.059
2.2117	42.075
2.2107	42.104
2.2098	42.143
2.2088	42.160
2.2079	42.101
2.2070	42.100
2.2060	42.136
2.2051	42.118
2.2041	42.098
2.2032	42.073
2.2023	42.020
2.2013	42.043
2.2004	42.072
2.1995	42.052
2.1985	42.037
2.1976	42.044
2.1967	41.998
2.1957	41.996
2.1948	42.030
2.1939	42.031
2.1930	42.016
2.1920	42.033
2.1911	42.028
2.1902	42.023
2.1893	41.991
2.1883	41.958
2.1874	41.964
2.1865	42.063
2.1856	42.066
2.1846	41.947
2.1837	41.853
2.1828	41.884
2.1819	41.863
2.1810	41.777
2.1800	41.859
2.1791	41.874
2.1782	41.870
2.1773	41.943
2.1764	41.979
2.1755	41.948
2.1746	41.920
2.1736	41.950
2.1727	41.980
2.1718	41.973
2.1709	41.966
2.1700	41.899
2.1691	41.837
2.1682	41.867
2.1673	41.948
2.1664	41.924
2.1655	41.853
2.1646	41.783
2.1637	41.800
2.1628	41.861
2.1619	41.848
2.1610	41.827
2.1601	41.771
2.1592	41.759
2.1583	41.792
2.1574	41.819
2.1565	41.810
2.1556	41.805
2.1547	41.830
2.1538	41.795
2.1529	41.696
2.1520	41.689
2.1511	41.745
2.1502	41.690
2.1493	41.665
2.1484	41.741
2.1475	41.761
2.1466	41.784
2.1458	41.734
2.1449	41.640
2.1440	41.622
2.1431	41.750
2.1422	41.791
2.1413	41.698
2.1404	41.668
2.1396	41.667
2.1387	41.623
2.1378	41.615
2.1369	41.650
2.1360	41.710
2.1352	41.707
2.1343	41.634
2.1334	41.642
2.1325	41.655
2.1316	41.673
2.1308	41.668
2.1299	41.595
2.1290	41.553
2.1281	41.570
2.1273	41.588
2.1264	41.563
2.1255	41.493
2.1247	41.481
2.1238	41.545
2.1229	41.561
2.1220	41.602
2.1212	41.569
2.1203	41.460
2.1194	41.493
2.1186	41.578
2.1177	41.579
2.1168	41.580
2.1160	41.555
2.1151	41.507
2.1143	41.531
2.1134	41.596
2.1125	41.645
2.1117	41.628
2.1108	41.524
2.1100	41.491
2.1091	41.482
2.1082	41.426
2.1074	41.386
2.1065	41.429
2.1057	41.448
2.1048	41.472
2.1040	41.455
2.1031	41.368
2.1023	41.340
2.1014	41.446
2.1005	41.485
2.0997	41.401
2.0988	41.412
2.0980	41.472
2.0971	41.490
2.0963	41.439
2.0955	41.340
2.0946	41.405
2.0938	41.450
2.0929	41.335
2.0921	41.293
2.0912	41.401
2.0904	41.334
2.0895	41.352
2.0887	41.406
2.0879	41.374
2.0870	41.338
2.0862	41.310
2.0853	41.235
2.0845	41.186
2.0837	41.275
2.0828	41.281
2.0820	41.290
2.0812	41.362
2.0803	41.282
2.0795	41.189
2.0760	41.189
2.0720	41.281
2.0680	41.487
2.0640	41.467
2.0600	41.208
2.0560	41.139
2.0520	41.076
2.0480	41.189
2.0440	40.911
2.0400	40.728
2.0360	40.692
2.0320	40.508
2.0280	40.364
2.0240	40.403
2.0200	40.420
2.0160	40.236
2.0120	40.328
2.0080	40.149
2.0040	39.987
2.0000	40.043
1.9960	40.005
1.9920	39.867
1.9880	39.574
1.9840	39.267
1.9800	39.060
1.9760	39.129
1.9720	39.185
1.9680	39.151
1.9640	39.185
1.9600	39.082
1.9560	38.744
1.9520	39.051
1.9480	38.960
1.9440	38.835
1.9400	38.745
1.9360	38.507
1.9320	38.404
1.9280	38.426
1.9240	38.701
1.9200	38.678
1.9160	38.678
1.9120	38.390
1.9080	38.377
1.9040	38.585
1.9000	38.942
1.8960	39.127
1.8920	39.120
1.8880	39.082
1.8840	38.620
1.8800	38.210
1.8760	38.098
1.8720	37.864
1.8680	38.104
1.8640	38.134
1.8600	38.149
1.8560	38.193
1.8520	38.193
1.8480	38.193
1.8440	38.194
1.8400	37.930
1.8360	37.982
1.8320	38.397
1.8280	38.620
1.8240	38.506
1.8200	38.118
1.8160	38.010
1.8120	37.782
1.8080	37.759
1.8040	37.889
1.8000	37.759
1.7960	37.670
1.7920	37.374
1.7880	37.302
1.7840	37.574
1.7800	37.638
1.7760	37.670
1.7720	37.470
1.7680	37.381
1.7640	37.197
1.7600	37.165
1.7560	37.134
1.7520	37.134
1.7480	36.951
1.7440	36.982
1.7400	37.141
1.7360	37.165
1.7320	37.317
1.7280	37.413
1.7240	37.446
1.7200	37.510
1.7160	37.664
1.7120	37.599
1.7080	37.317
1.7040	37.293
1.7000	37.109
1.6960	37.165
1.6920	37.197
1.6880	37.197
1.6840	37.207
1.6800	37.197
1.6760	37.077
1.6720	36.869
1.6680	36.806
1.6640	36.792
1.6600	36.949
1.6560	36.792
1.6520	36.823
1.6480	36.729
1.6440	36.641
1.6400	36.798
1.6360	36.823
1.6320	36.704
1.6280	36.892
1.6240	36.886
1.6200	36.704
1.6160	36.729
1.6120	36.704
1.6080	36.615
1.6040	36.527
1.6000	36.465
1.5960	36.465
1.5920	36.684
1.5880	36.835
1.5840	36.804
1.5800	36.861
1.5760	36.861
1.5720	36.678
1.5680	36.766
1.5640	36.886
1.5600	36.636
1.5560	36.729
1.5520	36.844
1.5480	36.678
1.5440	36.491
1.5400	36.455
1.5360	36.363
1.5320	36.657
1.5280	36.626
1.5240	36.503
1.5200	36.482
1.5160	36.813
1.5120	36.688
1.5080	36.564
1.5040	36.236
1.5000	36.043
1.4960	36.108
1.4920	36.134
1.4880	36.137
1.4840	36.334
1.4800	36.444
1.4760	36.491
1.4720	36.460
1.4680	36.398
1.4640	36.409
1.4600	36.574
1.4560	36.466
1.4520	36.405
1.4480	36.435
1.4440	36.313
1.4400	36.088
1.4360	36.088
1.4320	36.225
1.4280	36.358
1.4240	36.622
1.4200	36.591
1.4160	36.575
1.4120	36.252
1.4080	36.047
1.4040	36.111
1.4000	36.278
1.3960	36.473
1.3920	36.930
1.3880	37.115
1.3840	36.993
1.3800	37.032
1.3760	37.077
1.3720	37.151
1.3680	37.146
1.3640	37.438
1.3600	37.431
1.3560	37.333
1.3520	37.142
1.3480	37.047
1.3440	37.147
1.3400	37.051
1.3360	37.108
1.3320	36.968
1.3280	36.881
1.3240	36.860
1.3200	37.220
1.3160	37.370
1.3120	37.304
1.3080	37.211
1.3040	37.237
1.3000	37.175
1.2960	37.175
1.2920	37.268
1.2880	37.330
1.2840	37.155
1.2800	37.191
1.2760	37.347
1.2720	37.593
1.2680	37.689
1.2640	37.913
1.2600	37.929
1.2560	38.197
1.2520	38.361
1.2480	38.639
1.2440	38.730
1.2400	38.796
1.2360	38.862
1.2320	38.863
1.2280	38.824
1.2240	38.947
1.2200	38.928
1.2160	39.037
1.2120	38.815
1.2080	38.853
1.2040	38.872
1.2000	38.929
1.1960	39.106
1.1920	39.119
1.1880	39.142
1.1840	39.132
1.1800	39.243
1.1760	39.353
1.1720	39.375
1.1680	39.277
1.1640	39.212
1.1600	39.365
1.1560	39.038
1.1520	39.190
1.1480	39.319
1.1440	39.438
1.1400	39.790
1.1360	40.439
1.1320	40.190
1.1280	40.193
1.1240	40.046
1.1200	40.517
1.1160	40.529
1.1120	40.012
1.1080	40.513
1.1040	40.656
1.1000	40.690
1.0960	40.725
1.0920	41.308
1.0880	41.180
1.0840	41.234
1.0800	41.486
1.0760	41.590
1.0720	41.486
1.0680	41.625
1.0640	41.452
1.0600	41.535
1.0560	41.889
1.0520	41.967
1.0480	42.037
1.0440	41.908
1.0400	41.996
1.0360	42.066
1.0320	42.462
1.0280	42.321
1.0240	42.356
1.0200	42.490
1.0160	42.739
1.0120	42.889
1.0080	42.852
1.0040	42.534
1.0000	42.675
0.99600	42.852
0.99200	43.136
0.98800	42.976
0.98400	42.781
0.98000	42.622
0.97600	42.798
0.97200	42.834
0.96800	42.781
0.96400	42.481
0.96000	42.781
0.95600	42.852
0.95200	42.594
0.94800	42.488
0.94400	42.488
0.94000	42.506
0.93600	42.417
0.93200	42.417
0.92800	42.048
0.92400	42.242
0.92000	41.960
0.91600	41.994
0.91200	41.791
0.90800	41.722
0.90400	41.631
0.90000	41.666
0.89600	41.332
0.89200	41.190
0.88800	41.190
0.88400	41.380
0.88000	41.377
0.87600	41.165
0.87200	41.199
0.86800	41.195
0.86400	41.156
0.86000	41.181
0.85600	41.146
0.85200	40.982
0.84800	40.798
0.84400	40.878
0.84000	40.867
0.83600	40.927
0.83200	40.902
0.82800	40.991
0.82400	41.146
0.82000	40.829
0.81600	41.081
0.81200	41.347
0.80800	41.131
0.80400	40.979
0.80000	40.964
0.79900	40.964
0.79800	40.964
0.79700	41.157
0.79600	40.980
0.79500	40.868
0.79400	40.830
0.79300	40.603
0.79200	40.661
0.79100	40.661
0.79000	41.064
0.78900	40.964
0.78800	40.658
0.78700	40.558
0.78600	40.790
0.78500	40.887
0.78400	40.887
0.78300	40.828
0.78200	40.558
0.78100	40.575
0.78000	40.690
0.77900	40.922
0.77800	40.828
0.77700	40.558
0.77600	40.290
0.77500	40.492
0.77400	40.441
0.77300	40.462
0.77200	40.593
0.77100	40.597
0.77000	40.790
0.76900	40.593
0.76800	40.383
0.76700	40.497
0.76600	40.490
0.76500	40.110
0.76400	40.148
0.76300	40.110
0.76200	39.863
0.76100	39.915
0.76000	39.879
0.75900	39.954
0.75800	39.992
0.75700	39.739
0.75600	39.471
0.75500	39.530
0.75400	39.664
0.75300	39.701
0.75200	39.530
0.75100	39.300
0.75000	39.240
0.74900	39.337
0.74800	39.226
0.74700	39.502
0.74600	39.426
0.74500	39.427
0.74400	39.308
0.74300	39.040
0.74200	38.833
0.74100	39.226
0.74000	39.166
0.73900	38.944
0.73800	39.137
0.73700	38.980
0.73600	39.040
0.73500	38.750
0.73400	38.406
0.73300	38.533
0.73200	38.425
0.73100	38.254
0.73000	38.279
0.72900	38.388
0.72800	38.066
0.72700	38.085
0.72600	37.648
0.72500	38.085
0.72400	38.085
0.72300	37.773
0.72200	37.484
0.72100	37.468
0.72000	37.177
0.71900	37.177
0.71800	37.319
0.71700	37.089
0.71600	36.893
0.71500	36.992
0.71400	37.239
0.71300	37.106
0.71200	36.865
0.71100	36.396
0.71000	36.299
0.70900	36.163
0.70800	36.061
0.70700	36.340
0.70600	36.635
0.70500	36.483
0.70400	36.483
0.70300	36.115
0.70200	36.024
0.70100	35.792
0.70000	35.563
0.69900	35.631
0.69800	36.297
0.69700	36.281
0.69600	36.261
0.69500	36.053
0.69400	35.481
0.69300	34.974
0.69200	35.073
0.69100	35.176
0.69000	35.242
0.68900	35.214
0.68800	35.411
0.68700	35.076
0.68600	35.076
0.68500	34.979
0.68400	35.011
0.68300	34.678
0.68200	34.781
0.68100	34.612
0.68000	34.410
0.67900	34.209
0.67800	34.010
0.67700	34.245
0.67600	34.177
0.67500	34.177
0.67400	34.010
0.67300	33.876
0.67200	33.710
0.67100	33.910
0.67000	33.575
0.66900	33.376
0.66800	33.641
0.66700	33.302
0.66600	33.237
0.66500	33.375
0.66400	33.209
0.66300	33.138
0.66200	33.371
0.66100	33.237
0.66000	32.837
0.65900	32.934
0.65800	33.033
0.65700	33.132
0.65600	33.066
0.65500	32.633
0.65400	32.863
0.65300	32.831
0.65200	32.725
0.65100	32.554
0.65000	32.457
0.64900	32.431
0.64800	32.229
0.64700	32.123
0.64600	32.155
0.64500	32.123
0.64400	32.028
0.64300	31.826
0.64200	31.687
0.64100	31.953
0.64000	32.054
0.63900	31.750
0.63800	31.546
0.63700	31.485
0.63600	31.555
0.63500	31.524
0.63400	31.454
0.63300	31.555
0.63200	31.687
0.63100	31.423
0.63000	31.509
0.62900	31.509
0.62800	31.205
0.62700	31.011
0.62600	30.910
0.62500	30.809
0.62400	30.637
0.62300	30.657
0.62200	30.657
0.62100	30.525
0.62000	30.454
0.61900	30.657
0.61800	30.484
0.61700	30.424
0.61600	30.191
0.61500	30.029
0.61400	30.029
0.61300	29.970
0.61200	29.899
0.61100	29.899
0.61000	29.797
0.60900	29.797
0.60800	29.494
0.60700	29.523
0.60600	29.582
0.60500	29.409
0.60400	29.307
0.60300	29.262
0.60200	29.177
0.60100	29.192
0.60000	28.899
0.59900	28.870
0.59800	28.781
0.59700	28.737
0.59600	28.543
0.59500	28.630
0.59400	28.366
0.59300	28.395
0.59200	28.234
0.59100	28.337
0.59000	27.943
0.58900	27.849
0.58800	28.084
0.58700	27.512
0.58600	27.512
0.58500	27.428
0.58400	27.202
0.58300	27.078
0.58200	26.914
0.58100	26.947
0.58000	26.893
0.57900	26.740
0.57800	26.377
0.57700	26.274
0.57600	26.067
0.57500	26.274
0.57400	26.088
0.57300	26.087
0.57200	25.576
0.57100	25.526
0.57000	25.373
0.56900	25.145
0.56800	24.917
0.56700	24.816
0.56600	24.434
0.56500	24.028
0.56400	23.927
0.56300	23.700
0.56200	23.396
0.56100	23.341
0.56000	23.207
0.55900	21.988
0.55800	23.003
0.55700	22.744
0.55600	22.517
0.55500	22.433
0.55400	22.142
0.55300	21.969
0.55200	21.758
0.55100	21.787
0.55000	21.911
0.54900	21.826
0.54800	22.024
0.54700	21.580
0.54600	21.507
0.54500	21.341
0.54400	20.929
0.54300	21.029
0.54200	20.950
0.54100	21.072
0.54000	20.831
0.53900	20.791
0.53800	20.574
0.53700	20.635
0.53600	20.654
0.53500	20.455
0.53400	20.216
0.53300	20.138
0.53200	20.060
0.53100	20.079
0.53000	20.137
0.52900	20.157
0.52800	20.177
0.52700	19.920
0.52600	19.863
0.52500	19.840
0.52400	19.936
0.52300	19.844
0.52200	19.726
0.52100	19.764
0.52000	19.860
0.51900	19.756
0.51800	19.685
0.51700	19.567
0.51600	19.561
0.51500	19.627
0.51400	19.259
0.51300	19.627
0.51200	19.642
0.51100	19.530
0.51000	19.246
0.50900	19.481
0.50800	19.137
0.50700	19.137
0.50600	19.226
0.50500	19.038
0.50400	18.993
0.50300	19.080
0.50200	19.232
0.50100	19.038
0.50000	18.958
0.49900	18.993
0.49800	18.823
0.49700	18.993
0.49600	18.923
0.49500	18.977
0.49400	18.967
0.49300	18.632
0.49200	18.753
0.49100	18.726
0.49000	18.581
0.48900	18.691
0.48800	18.673
0.48700	18.639
0.48600	18.363
0.48500	18.265
0.48400	18.361
0.48300	18.629
0.48200	18.552
0.48100	18.681
0.48000	18.431
0.47900	18.185
0.47800	18.057
0.47700	18.156
0.47600	18.189
0.47500	18.173
0.47400	18.156
0.47300	18.008
0.47200	18.106
0.47100	18.042
0.47000	18.206
0.46900	17.864
0.46800	17.766
0.46700	17.896
0.46600	17.864
0.46500	18.108
0.46400	18.012
0.46300	18.058
0.46200	17.701
0.46100	17.717
0.46000	17.687
0.45900	17.854
0.45800	18.070
0.45700	17.829
0.45600	17.823
0.45500	17.381
0.45400	17.501
0.45300	17.391
0.45200	17.624
0.45100	17.601
0.45000	17.575
0.44900	17.559
0.44800	17.252
0.44700	17.270
0.44600	17.280
0.44500	17.101
0.44400	16.892
0.44300	17.249
0.44200	17.548
0.44100	17.070
0.44000	17.130
0.43900	16.830
0.43800	17.022
0.43700	17.097
0.43600	16.934
0.43500	16.930
0.43400	16.856
0.43300	16.781
0.43200	16.645
0.43100	16.856
0.43000	16.674
0.42900	16.865
0.42800	16.538
0.42700	16.713
0.42600	16.684
0.42500	16.428
0.42400	16.361
0.42300	16.433
0.42200	16.365
0.42100	16.415
0.42000	16.622
0.41900	16.415
0.41800	16.267
0.41700	16.267
0.41600	16.267
0.41500	16.370
0.41400	16.484
0.41300	16.202
0.41200	16.403
0.41100	16.358
0.41000	15.970
0.40900	16.045
0.40800	16.095
0.40700	16.134
0.40600	16.134
0.40500	16.142
0.40400	16.047
0.40300	16.155
0.40200	16.146
0.40100	16.026
0.40000	16.180
0.0000	
