Name: Glauconitic Sandstone 
Type:  Rocks
Class:  Sedimentary
Subclass: Sandstone 
Particle Size:  0 - 75 Micrometers
File Name:  sandstone.2
Owner:  JHU
Wavelength Range:  All
Origin:  Sample No. 364,  The Hunt and Salisbury Collection at the U.S. 
Geological Survey, Denver, Co.
Description: The sample is a well-sorted, medium fine-grained, 
somewhat compacted sandstone. The strain-free, angular to 
subangular quartz grains are in a matrix of sericite, glauconite 
(mostly as autochthonous microcrystalline masses), a yellowish-
brown microcrystalline material (clay and/or glauconite?), with some 
muscovite, biotite, carbonate and minor microcline and opaques.
Measurement:  Directional (10 Degree) Hemispherical Reflectance
First Column:  X
Second Column:  Y  
X Units:  Wavelength (micrometers)
Y Units:  Reflectance (percent)
First X Value: 14.0112
Last X Value:  0.4
Number of X Values: 2844
Additional Information:  None

14.983	3.4857
14.940	3.3533
14.897	3.2311
14.854	3.1407
14.812	3.0855
14.770	3.0549
14.728	3.0289
14.686	2.9853
14.645	2.9093
14.603	2.7947
14.562	2.6464
14.521	2.4778
14.481	2.3087
14.441	2.1612
14.400	2.0567
14.361	2.0118
14.321	2.0357
14.281	2.1273
14.242	2.2760
14.203	2.4619
14.164	2.6628
14.126	2.8569
14.087	3.0286
14.049	3.1703
14.011	3.2813
13.973	3.3673
13.936	3.4355
13.899	3.4935
13.861	3.5466
13.824	3.5977
13.788	3.6465
13.751	3.6910
13.715	3.7275
13.679	3.7523
13.643	3.7628
13.607	3.7573
13.571	3.7367
13.536	3.7024
13.500	3.6579
13.465	3.6065
13.430	3.5515
13.396	3.4963
13.361	3.4435
13.327	3.3948
13.293	3.3509
13.259	3.3112
13.225	3.2735
13.191	3.2351
13.158	3.1937
13.124	3.1480
13.091	3.0992
13.058	3.0507
13.026	3.0069
12.993	2.9723
12.960	2.9488
12.928	2.9349
12.896	2.9249
12.864	2.9112
12.832	2.8858
12.800	2.8437
12.769	2.7852
12.737	2.7156
12.706	2.6440
12.675	2.5808
12.644	2.5327
12.614	2.5020
12.583	2.4830
12.552	2.4657
12.522	2.4385
12.492	2.3926
12.462	2.3251
12.432	2.2422
12.402	2.1569
12.373	2.0859
12.343	2.0454
12.314	2.0459
12.285	2.0906
12.256	2.1749
12.227	2.2884
12.198	2.4191
12.169	2.5564
12.141	2.6945
12.113	2.8311
12.084	2.9690
12.056	3.1125
12.028	3.2666
12.000	3.4343
11.973	3.6162
11.945	3.8089
11.918	4.0079
11.890	4.2063
11.863	4.3984
11.836	4.5795
11.809	4.7467
11.782	4.8976
11.755	5.0300
11.729	5.1413
11.702	5.2282
11.676	5.2881
11.650	5.3198
11.624	5.3241
11.598	5.3037
11.572	5.2639
11.546	5.2099
11.520	5.1479
11.495	5.0835
11.469	5.0217
11.444	4.9665
11.419	4.9208
11.394	4.8857
11.369	4.8604
11.344	4.8419
11.319	4.8258
11.294	4.8076
11.270	4.7825
11.245	4.7479
11.221	4.7027
11.197	4.6473
11.173	4.5824
11.149	4.5094
11.125	4.4289
11.101	4.3425
11.077	4.2520
11.054	4.1613
11.030	4.0749
11.007	3.9979
10.983	3.9342
10.960	3.8850
10.937	3.8492
10.914	3.8241
10.891	3.8054
10.868	3.7893
10.846	3.7732
10.823	3.7554
10.800	3.7360
10.778	3.7154
10.755	3.6953
10.733	3.6775
10.711	3.6635
10.689	3.6548
10.667	3.6508
10.645	3.6515
10.623	3.6548
10.602	3.6598
10.580	3.6643
10.558	3.6673
10.537	3.6671
10.516	3.6631
10.494	3.6538
10.473	3.6396
10.452	3.6207
10.431	3.5977
10.410	3.5719
10.389	3.5449
10.368	3.5184
10.348	3.4933
10.327	3.4708
10.306	3.4514
10.286	3.4355
10.266	3.4229
10.245	3.4130
10.225	3.4047
10.205	3.3981
10.185	3.3929
10.165	3.3895
10.145	3.3884
10.125	3.3898
10.106	3.3938
10.086	3.3997
10.066	3.4078
10.047	3.4175
10.027	3.4298
10.008	3.4454
9.9887	3.4651
9.9695	3.4892
9.9504	3.5167
9.9313	3.5456
9.9123	3.5738
9.8934	3.5987
9.8746	3.6197
9.8558	3.6373
9.8371	3.6543
9.8185	3.6742
9.7999	3.7005
9.7814	3.7367
9.7630	3.7841
9.7447	3.8421
9.7264	3.9084
9.7082	3.9797
9.6900	4.0517
9.6719	4.1206
9.6539	4.1831
9.6360	4.2369
9.6181	4.2802
9.6003	4.3124
9.5825	4.3340
9.5649	4.3465
9.5472	4.3536
9.5297	4.3614
9.5122	4.3773
9.4948	4.4107
9.4774	4.4713
9.4601	4.5675
9.4429	4.7051
9.4257	4.8850
9.4086	5.1041
9.3916	5.3530
9.3746	5.6187
9.3577	5.8851
9.3408	6.1361
9.3240	6.3585
9.3073	6.5427
9.2906	6.6858
9.2740	6.7902
9.2574	6.8622
9.2409	6.9108
9.2245	6.9434
9.2081	6.9674
9.1918	6.9863
9.1755	7.0019
9.1593	7.0152
9.1431	7.0259
9.1270	7.0341
9.1110	7.0405
9.0950	7.0450
9.0791	7.0467
9.0632	7.0450
9.0474	7.0391
9.0316	7.0289
9.0159	7.0154
9.0003	7.0000
8.9847	6.9851
8.9691	6.9721
8.9536	6.9617
8.9382	6.9534
8.9228	6.9453
8.9075	6.9352
8.8922	6.9205
8.8770	6.8989
8.8618	6.8693
8.8467	6.8326
8.8316	6.7902
8.8166	6.7450
8.8016	6.7002
8.7867	6.6576
8.7718	6.6162
8.7570	6.5700
8.7422	6.5082
8.7275	6.4165
8.7129	6.2822
8.6982	6.1013
8.6837	5.8839
8.6692	5.6566
8.6547	5.4581
8.6403	5.3291
8.6259	5.2992
8.6116	5.3783
8.5973	5.5517
8.5830	5.7849
8.5688	6.0355
8.5547	6.2645
8.5406	6.4466
8.5266	6.5731
8.5126	6.6498
8.4986	6.6908
8.4847	6.7121
8.4708	6.7268
8.4570	6.7431
8.4432	6.7646
8.4295	6.7926
8.4158	6.8281
8.4022	6.8717
8.3886	6.9250
8.3750	6.9901
8.3615	7.0685
8.3481	7.1623
8.3347	7.2724
8.3213	7.4005
8.3079	7.5483
8.2946	7.7174
8.2814	7.9085
8.2682	8.1211
8.2550	8.3518
8.2419	8.5929
8.2288	8.8320
8.2158	9.0535
8.2028	9.2379
8.1898	9.3670
8.1769	9.4250
8.1640	9.4030
8.1512	9.3000
8.1384	9.1240
8.1256	8.8905
8.1129	8.6196
8.1002	8.3314
8.0876	8.0437
8.0750	7.7695
8.0624	7.5163
8.0499	7.2868
8.0374	7.0801
8.0250	6.8925
8.0126	6.7185
8.0002	6.5508
7.9879	6.3831
7.9756	6.2098
7.9634	6.0279
7.9512	5.8377
7.9390	5.6431
7.9268	5.4503
7.9147	5.2658
7.9027	5.0951
7.8906	4.9414
7.8786	4.8062
7.8667	4.6899
7.8548	4.5926
7.8429	4.5149
7.8310	4.4581
7.8192	4.4230
7.8075	4.4095
7.7957	4.4150
7.7840	4.4353
7.7723	4.4652
7.7607	4.4986
7.7491	4.5315
7.7375	4.5613
7.7260	4.5876
7.7145	4.6108
7.7031	4.6307
7.6916	4.6468
7.6802	4.6575
7.6689	4.6608
7.6575	4.6558
7.6462	4.6442
7.6350	4.6293
7.6238	4.6158
7.6126	4.6094
7.6014	4.6139
7.5903	4.6314
7.5792	4.6605
7.5681	4.6989
7.5571	4.7420
7.5461	4.7853
7.5351	4.8256
7.5242	4.8606
7.5133	4.8895
7.5024	4.9127
7.4916	4.9322
7.4807	4.9495
7.4700	4.9672
7.4592	4.9871
7.4485	5.0105
7.4378	5.0375
7.4272	5.0669
7.4165	5.0963
7.4059	5.1226
7.3954	5.1427
7.3848	5.1545
7.3743	5.1583
7.3639	5.1560
7.3534	5.1507
7.3430	5.1465
7.3326	5.1470
7.3222	5.1538
7.3119	5.1683
7.3016	5.1908
7.2914	5.2208
7.2811	5.2580
7.2709	5.3014
7.2607	5.3492
7.2506	5.3977
7.2404	5.4437
7.2303	5.4823
7.2203	5.5102
7.2102	5.5254
7.2002	5.5278
7.1902	5.5199
7.1803	5.5060
7.1703	5.4901
7.1604	5.4761
7.1506	5.4667
7.1407	5.4626
7.1309	5.4626
7.1211	5.4638
7.1113	5.4626
7.1016	5.4558
7.0919	5.4411
7.0822	5.4193
7.0725	5.3932
7.0629	5.3670
7.0533	5.3459
7.0437	5.3336
7.0341	5.3312
7.0246	5.3381
7.0151	5.3527
7.0056	5.3736
6.9962	5.4018
6.9867	5.4399
6.9773	5.4927
6.9679	5.5640
6.9586	5.6552
6.9493	5.7636
6.9400	5.8837
6.9307	6.0061
6.9214	6.1217
6.9122	6.2235
6.9030	6.3090
6.8938	6.3812
6.8847	6.4478
6.8755	6.5188
6.8664	6.6031
6.8573	6.7038
6.8483	6.8184
6.8393	6.9385
6.8302	7.0540
6.8213	7.1556
6.8123	7.2397
6.8034	7.3077
6.7944	7.3652
6.7855	7.4180
6.7767	7.4694
6.7678	7.5189
6.7590	7.5637
6.7502	7.5994
6.7414	7.6264
6.7327	7.6487
6.7239	7.6754
6.7152	7.7171
6.7065	7.7820
6.6979	7.8720
6.6892	7.9819
6.6806	8.1008
6.6720	8.2168
6.6634	8.3210
6.6549	8.4107
6.6464	8.4894
6.6378	8.5621
6.6294	8.6308
6.6209	8.6928
6.6124	8.7409
6.6040	8.7679
6.5956	8.7721
6.5872	8.7619
6.5789	8.7544
6.5705	8.7702
6.5622	8.8278
6.5539	8.9365
6.5456	9.0944
6.5374	9.2908
6.5292	9.5122
6.5209	9.7495
6.5128	10.001
6.5046	10.273
6.4964	10.571
6.4883	10.896
6.4802	11.234
6.4721	11.560
6.4640	11.837
6.4560	12.035
6.4480	12.136
6.4399	12.146
6.4320	12.089
6.4240	12.002
6.4160	11.916
6.4081	11.845
6.4002	11.784
6.3923	11.717
6.3844	11.617
6.3766	11.472
6.3687	11.278
6.3609	11.049
6.3531	10.805
6.3454	10.563
6.3376	10.333
6.3299	10.117
6.3221	9.9084
6.3144	9.6988
6.3068	9.4826
6.2991	9.2593
6.2914	9.0319
6.2838	8.8055
6.2762	8.5853
6.2686	8.3759
6.2611	8.1810
6.2535	8.0027
6.2460	7.8424
6.2385	7.7003
6.2310	7.5769
6.2235	7.4722
6.2160	7.3882
6.2086	7.3299
6.2011	7.3062
6.1937	7.3271
6.1863	7.4017
6.1790	7.5331
6.1716	7.7169
6.1643	7.9400
6.1570	8.1836
6.1496	8.4285
6.1424	8.6601
6.1351	8.8728
6.1278	9.0677
6.1206	9.2517
6.1134	9.4298
6.1062	9.6012
6.0990	9.7570
6.0918	9.8854
6.0847	9.9770
6.0776	10.031
6.0704	10.058
6.0633	10.080
6.0563	10.121
6.0492	10.195
6.0421	10.307
6.0351	10.440
6.0281	10.572
6.0211	10.676
6.0141	10.735
6.0071	10.742
6.0002	10.705
5.9932	10.636
5.9863	10.548
5.9794	10.453
5.9725	10.356
5.9657	10.264
5.9588	10.184
5.9520	10.133
5.9451	10.125
5.9383	10.175
5.9315	10.285
5.9247	10.447
5.9180	10.643
5.9112	10.858
5.9045	11.083
5.8978	11.320
5.8911	11.581
5.8844	11.878
5.8777	12.213
5.8711	12.576
5.8644	12.941
5.8578	13.279
5.8512	13.571
5.8446	13.810
5.8380	14.013
5.8314	14.203
5.8249	14.407
5.8184	14.637
5.8118	14.889
5.8053	15.139
5.7988	15.363
5.7923	15.538
5.7859	15.661
5.7794	15.745
5.7730	15.817
5.7666	15.901
5.7602	16.013
5.7538	16.151
5.7474	16.303
5.7410	16.448
5.7347	16.570
5.7283	16.660
5.7220	16.719
5.7157	16.754
5.7094	16.771
5.7031	16.769
5.6969	16.744
5.6906	16.681
5.6844	16.568
5.6782	16.392
5.6719	16.150
5.6657	15.846
5.6596	15.497
5.6534	15.125
5.6472	14.755
5.6411	14.409
5.6349	14.100
5.6288	13.830
5.6227	13.590
5.6166	13.369
5.6106	13.152
5.6045	12.934
5.5984	12.716
5.5924	12.509
5.5864	12.330
5.5804	12.199
5.5744	12.131
5.5684	12.141
5.5624	12.231
5.5564	12.400
5.5505	12.637
5.5445	12.926
5.5386	13.249
5.5327	13.588
5.5268	13.928
5.5209	14.257
5.5151	14.567
5.5092	14.856
5.5033	15.122
5.4975	15.368
5.4917	15.597
5.4859	15.813
5.4801	16.020
5.4743	16.218
5.4685	16.404
5.4628	16.566
5.4570	16.691
5.4513	16.759
5.4455	16.755
5.4398	16.670
5.4341	16.501
5.4284	16.254
5.4228	15.938
5.4171	15.563
5.4114	15.136
5.4058	14.666
5.4002	14.163
5.3945	13.640
5.3889	13.116
5.3833	12.612
5.3778	12.151
5.3722	11.753
5.3666	11.432
5.3611	11.195
5.3555	11.044
5.3500	10.971
5.3445	10.967
5.3390	11.016
5.3335	11.102
5.3280	11.211
5.3225	11.331
5.3171	11.457
5.3116	11.590
5.3062	11.733
5.3008	11.897
5.2954	12.088
5.2900	12.315
5.2846	12.582
5.2792	12.890
5.2738	13.239
5.2684	13.628
5.2631	14.054
5.2578	14.519
5.2524	15.020
5.2471	15.554
5.2418	16.116
5.2365	16.691
5.2312	17.263
5.2260	17.811
5.2207	18.315
5.2154	18.760
5.2102	19.134
5.2050	19.434
5.1998	19.661
5.1945	19.824
5.1893	19.933
5.1842	19.999
5.1790	20.034
5.1738	20.048
5.1686	20.047
5.1635	20.038
5.1584	20.025
5.1532	20.013
5.1481	20.005
5.1430	20.008
5.1379	20.023
5.1328	20.051
5.1277	20.088
5.1227	20.125
5.1176	20.151
5.1126	20.153
5.1075	20.122
5.1025	20.051
5.0975	19.942
5.0925	19.802
5.0875	19.645
5.0825	19.485
5.0775	19.340
5.0726	19.219
5.0676	19.131
5.0627	19.073
5.0577	19.042
5.0528	19.027
5.0479	19.019
5.0430	19.009
5.0380	18.992
5.0332	18.969
5.0283	18.942
5.0234	18.922
5.0185	18.916
5.0137	18.933
5.0088	18.981
5.0040	19.067
4.9992	19.198
4.9944	19.381
4.9896	19.624
4.9848	19.934
4.9800	20.310
4.9752	20.744
4.9704	21.218
4.9657	21.708
4.9609	22.183
4.9562	22.620
4.9514	23.002
4.9467	23.327
4.9420	23.604
4.9373	23.858
4.9326	24.118
4.9279	24.416
4.9232	24.777
4.9186	25.218
4.9139	25.740
4.9092	26.335
4.9046	26.982
4.9000	27.655
4.8953	28.326
4.8907	28.970
4.8861	29.568
4.8815	30.110
4.8769	30.590
4.8723	31.013
4.8678	31.384
4.8632	31.711
4.8586	32.002
4.8541	32.265
4.8495	32.505
4.8450	32.728
4.8405	32.937
4.8360	33.135
4.8315	33.323
4.8270	33.499
4.8225	33.662
4.8180	33.813
4.8135	33.952
4.8090	34.079
4.8046	34.198
4.8001	34.312
4.7957	34.423
4.7913	34.536
4.7868	34.653
4.7824	34.776
4.7780	34.906
4.7736	35.043
4.7692	35.184
4.7648	35.327
4.7605	35.470
4.7561	35.610
4.7517	35.745
4.7474	35.873
4.7431	35.995
4.7387	36.109
4.7344	36.214
4.7301	36.310
4.7258	36.394
4.7215	36.464
4.7172	36.514
4.7129	36.541
4.7086	36.543
4.7043	36.522
4.7000	36.485
4.6958	36.442
4.6915	36.410
4.6873	36.403
4.6831	36.434
4.6788	36.512
4.6746	36.635
4.6704	36.798
4.6662	36.990
4.6620	37.200
4.6578	37.419
4.6536	37.639
4.6495	37.858
4.6453	38.072
4.6411	38.281
4.6370	38.485
4.6328	38.681
4.6287	38.869
4.6246	39.050
4.6205	39.221
4.6163	39.383
4.6122	39.536
4.6081	39.679
4.6040	39.814
4.6000	39.939
4.5959	40.056
4.5918	40.164
4.5877	40.263
4.5837	40.353
4.5796	40.435
4.5756	40.508
4.5716	40.575
4.5675	40.636
4.5635	40.689
4.5595	40.733
4.5555	40.767
4.5515	40.789
4.5475	40.796
4.5435	40.788
4.5395	40.766
4.5356	40.730
4.5316	40.680
4.5276	40.614
4.5237	40.532
4.5197	40.433
4.5158	40.320
4.5119	40.197
4.5080	40.071
4.5040	39.952
4.5001	39.847
4.4962	39.760
4.4923	39.694
4.4884	39.646
4.4846	39.614
4.4807	39.599
4.4768	39.603
4.4730	39.628
4.4691	39.680
4.4652	39.763
4.4614	39.875
4.4576	40.011
4.4537	40.161
4.4499	40.315
4.4461	40.465
4.4423	40.605
4.4385	40.736
4.4347	40.860
4.4309	40.983
4.4271	41.108
4.4233	41.238
4.4196	41.374
4.4158	41.516
4.4120	41.662
4.4083	41.812
4.4045	41.964
4.4008	42.117
4.3971	42.271
4.3934	42.424
4.3896	42.576
4.3859	42.727
4.3822	42.874
4.3785	43.018
4.3748	43.159
4.3711	43.294
4.3674	43.424
4.3638	43.547
4.3601	43.662
4.3564	43.769
4.3528	43.867
4.3491	43.957
4.3455	44.038
4.3418	44.111
4.3382	44.175
4.3346	44.230
4.3310	44.277
4.3273	44.314
4.3237	44.343
4.3201	44.364
4.3165	44.377
4.3129	44.384
4.3094	44.389
4.3058	44.391
4.3022	44.393
4.2986	44.395
4.2951	44.398
4.2915	44.402
4.2880	44.405
4.2844	44.408
4.2809	44.414
4.2774	44.426
4.2738	44.449
4.2703	44.487
4.2668	44.541
4.2633	44.608
4.2598	44.684
4.2563	44.762
4.2528	44.833
4.2493	44.894
4.2458	44.943
4.2424	44.982
4.2389	45.015
4.2354	45.047
4.2320	45.081
4.2285	45.117
4.2251	45.155
4.2216	45.194
4.2182	45.231
4.2148	45.263
4.2113	45.292
4.2079	45.318
4.2045	45.342
4.2011	45.367
4.1977	45.395
4.1943	45.428
4.1909	45.466
4.1875	45.508
4.1841	45.553
4.1808	45.599
4.1774	45.645
4.1740	45.689
4.1707	45.730
4.1673	45.768
4.1640	45.803
4.1606	45.836
4.1573	45.869
4.1540	45.901
4.1506	45.932
4.1473	45.964
4.1440	45.995
4.1407	46.025
4.1374	46.054
4.1341	46.083
4.1308	46.111
4.1275	46.139
4.1242	46.167
4.1209	46.195
4.1177	46.223
4.1144	46.250
4.1111	46.276
4.1079	46.299
4.1046	46.320
4.1014	46.338
4.0981	46.352
4.0949	46.361
4.0917	46.366
4.0884	46.367
4.0852	46.363
4.0820	46.357
4.0788	46.347
4.0756	46.335
4.0724	46.319
4.0692	46.298
4.0660	46.270
4.0628	46.231
4.0596	46.180
4.0565	46.112
4.0533	46.025
4.0501	45.914
4.0470	45.777
4.0438	45.613
4.0406	45.423
4.0375	45.213
4.0344	44.990
4.0312	44.764
4.0281	44.546
4.0250	44.344
4.0218	44.165
4.0187	44.009
4.0156	43.870
4.0125	43.736
4.0094	43.595
4.0063	43.435
4.0032	43.247
4.0001	43.030
3.9970	42.789
3.9940	42.536
3.9909	42.286
3.9878	42.057
3.9847	41.864
3.9817	41.716
3.9786	41.621
3.9756	41.580
3.9725	41.589
3.9695	41.645
3.9665	41.744
3.9634	41.883
3.9604	42.059
3.9574	42.270
3.9544	42.513
3.9513	42.779
3.9483	43.058
3.9453	43.336
3.9423	43.597
3.9393	43.829
3.9363	44.021
3.9333	44.171
3.9304	44.282
3.9274	44.358
3.9244	44.410
3.9214	44.444
3.9185	44.466
3.9155	44.480
3.9126	44.487
3.9096	44.488
3.9067	44.484
3.9037	44.478
3.9008	44.469
3.8979	44.459
3.8949	44.450
3.8920	44.441
3.8891	44.432
3.8862	44.423
3.8833	44.412
3.8804	44.399
3.8775	44.382
3.8746	44.363
3.8717	44.342
3.8688	44.321
3.8659	44.301
3.8630	44.284
3.8601	44.270
3.8573	44.260
3.8544	44.254
3.8515	44.253
3.8487	44.257
3.8458	44.269
3.8430	44.288
3.8401	44.316
3.8373	44.352
3.8344	44.395
3.8316	44.444
3.8288	44.497
3.8259	44.553
3.8231	44.610
3.8203	44.669
3.8175	44.726
3.8147	44.781
3.8119	44.834
3.8091	44.883
3.8063	44.929
3.8035	44.970
3.8007	45.006
3.7979	45.035
3.7951	45.057
3.7924	45.069
3.7896	45.070
3.7868	45.060
3.7841	45.039
3.7813	45.009
3.7785	44.971
3.7758	44.925
3.7730	44.874
3.7703	44.818
3.7676	44.759
3.7648	44.697
3.7621	44.634
3.7594	44.570
3.7566	44.505
3.7539	44.440
3.7512	44.375
3.7485	44.311
3.7458	44.248
3.7431	44.187
3.7404	44.127
3.7377	44.069
3.7350	44.013
3.7323	43.957
3.7296	43.901
3.7269	43.846
3.7242	43.791
3.7216	43.735
3.7189	43.681
3.7162	43.628
3.7136	43.576
3.7109	43.523
3.7083	43.471
3.7056	43.417
3.7030	43.362
3.7003	43.305
3.6977	43.247
3.6950	43.188
3.6924	43.128
3.6898	43.067
3.6872	43.006
3.6845	42.944
3.6819	42.882
3.6793	42.820
3.6767	42.756
3.6741	42.691
3.6715	42.623
3.6689	42.551
3.6663	42.475
3.6637	42.396
3.6611	42.315
3.6585	42.233
3.6560	42.150
3.6534	42.068
3.6508	41.987
3.6482	41.905
3.6457	41.822
3.6431	41.737
3.6406	41.648
3.6380	41.555
3.6355	41.458
3.6329	41.357
3.6304	41.253
3.6278	41.147
3.6253	41.040
3.6227	40.932
3.6202	40.825
3.6177	40.717
3.6152	40.609
3.6127	40.500
3.6101	40.390
3.6076	40.277
3.6051	40.161
3.6026	40.041
3.6001	39.916
3.5976	39.788
3.5951	39.656
3.5926	39.520
3.5901	39.381
3.5876	39.237
3.5852	39.090
3.5827	38.939
3.5802	38.786
3.5777	38.631
3.5753	38.474
3.5728	38.318
3.5704	38.159
3.5679	38.001
3.5654	37.841
3.5630	37.682
3.5605	37.526
3.5581	37.374
3.5557	37.230
3.5532	37.093
3.5508	36.965
3.5484	36.845
3.5459	36.729
3.5435	36.616
3.5411	36.503
3.5387	36.388
3.5363	36.269
3.5338	36.147
3.5314	36.022
3.5290	35.894
3.5266	35.763
3.5242	35.631
3.5218	35.496
3.5195	35.360
3.5171	35.223
3.5147	35.086
3.5123	34.952
3.5099	34.823
3.5075	34.702
3.5052	34.589
3.5028	34.487
3.5004	34.396
3.4981	34.312
3.4957	34.234
3.4934	34.156
3.4910	34.077
3.4887	33.993
3.4863	33.905
3.4840	33.816
3.4816	33.730
3.4793	33.654
3.4770	33.591
3.4746	33.545
3.4723	33.514
3.4700	33.497
3.4677	33.486
3.4653	33.477
3.4630	33.460
3.4607	33.432
3.4584	33.389
3.4561	33.331
3.4538	33.258
3.4515	33.173
3.4492	33.079
3.4469	32.980
3.4446	32.878
3.4423	32.774
3.4400	32.672
3.4378	32.570
3.4355	32.470
3.4332	32.368
3.4309	32.262
3.4287	32.149
3.4264	32.029
3.4241	31.898
3.4219	31.760
3.4196	31.618
3.4174	31.473
3.4151	31.332
3.4129	31.196
3.4106	31.065
3.4084	30.937
3.4061	30.812
3.4039	30.687
3.4017	30.560
3.3994	30.431
3.3972	30.299
3.3950	30.164
3.3928	30.029
3.3906	29.891
3.3883	29.752
3.3861	29.611
3.3839	29.468
3.3817	29.326
3.3795	29.183
3.3773	29.042
3.3751	28.902
3.3729	28.764
3.3707	28.626
3.3685	28.487
3.3663	28.345
3.3641	28.201
3.3620	28.053
3.3598	27.904
3.3576	27.758
3.3554	27.617
3.3533	27.488
3.3511	27.374
3.3489	27.280
3.3468	27.207
3.3446	27.152
3.3425	27.111
3.3403	27.076
3.3382	27.040
3.3360	26.997
3.3339	26.941
3.3317	26.871
3.3296	26.788
3.3274	26.695
3.3253	26.595
3.3232	26.492
3.3210	26.386
3.3189	26.281
3.3168	26.176
3.3147	26.071
3.3126	25.968
3.3104	25.865
3.3083	25.765
3.3062	25.666
3.3041	25.568
3.3020	25.471
3.2999	25.373
3.2978	25.276
3.2957	25.179
3.2936	25.083
3.2915	24.988
3.2894	24.896
3.2874	24.806
3.2853	24.721
3.2832	24.639
3.2811	24.561
3.2790	24.487
3.2770	24.418
3.2749	24.354
3.2728	24.293
3.2708	24.236
3.2687	24.183
3.2666	24.130
3.2646	24.079
3.2625	24.026
3.2605	23.971
3.2584	23.915
3.2564	23.858
3.2543	23.800
3.2523	23.740
3.2503	23.678
3.2482	23.612
3.2462	23.543
3.2442	23.467
3.2421	23.387
3.2401	23.302
3.2381	23.213
3.2361	23.121
3.2340	23.027
3.2320	22.931
3.2300	22.831
3.2280	22.728
3.2260	22.621
3.2240	22.512
3.2220	22.403
3.2200	22.294
3.2180	22.188
3.2160	22.084
3.2140	21.983
3.2120	21.882
3.2100	21.782
3.2080	21.681
3.2060	21.580
3.2040	21.478
3.2021	21.375
3.2001	21.272
3.1981	21.168
3.1961	21.064
3.1942	20.960
3.1922	20.856
3.1902	20.754
3.1883	20.654
3.1863	20.557
3.1844	20.462
3.1824	20.369
3.1805	20.278
3.1785	20.187
3.1766	20.097
3.1746	20.006
3.1727	19.916
3.1707	19.826
3.1688	19.735
3.1669	19.644
3.1649	19.553
3.1630	19.462
3.1611	19.371
3.1591	19.281
3.1572	19.192
3.1553	19.102
3.1534	19.010
3.1515	18.917
3.1495	18.822
3.1476	18.726
3.1457	18.629
3.1438	18.534
3.1419	18.442
3.1400	18.352
3.1381	18.266
3.1362	18.181
3.1343	18.098
3.1324	18.015
3.1305	17.931
3.1286	17.846
3.1268	17.758
3.1249	17.667
3.1230	17.575
3.1211	17.481
3.1192	17.386
3.1174	17.292
3.1155	17.198
3.1136	17.106
3.1117	17.016
3.1099	16.928
3.1080	16.844
3.1061	16.764
3.1043	16.686
3.1024	16.611
3.1006	16.535
3.0987	16.456
3.0969	16.373
3.0950	16.285
3.0932	16.194
3.0913	16.102
3.0895	16.011
3.0876	15.924
3.0858	15.840
3.0840	15.759
3.0821	15.679
3.0803	15.598
3.0785	15.517
3.0766	15.436
3.0748	15.356
3.0730	15.279
3.0712	15.207
3.0694	15.140
3.0675	15.075
3.0657	15.012
3.0639	14.946
3.0621	14.875
3.0603	14.800
3.0585	14.722
3.0567	14.643
3.0549	14.564
3.0531	14.489
3.0513	14.418
3.0495	14.353
3.0477	14.292
3.0459	14.233
3.0441	14.176
3.0423	14.117
3.0406	14.055
3.0388	13.991
3.0370	13.926
3.0352	13.861
3.0334	13.801
3.0317	13.745
3.0299	13.694
3.0281	13.646
3.0264	13.600
3.0246	13.554
3.0228	13.506
3.0211	13.455
3.0193	13.403
3.0176	13.351
3.0158	13.299
3.0140	13.249
3.0123	13.200
3.0105	13.152
3.0088	13.105
3.0070	13.059
3.0053	13.015
3.0036	12.973
3.0018	12.935
3.0001	12.901
2.9984	12.871
2.9966	12.844
2.9949	12.818
2.9932	12.790
2.9914	12.761
2.9897	12.729
2.9880	12.696
2.9863	12.662
2.9845	12.628
2.9828	12.595
2.9811	12.563
2.9794	12.529
2.9777	12.493
2.9760	12.455
2.9743	12.415
2.9726	12.372
2.9709	12.328
2.9692	12.285
2.9675	12.243
2.9658	12.205
2.9641	12.169
2.9624	12.136
2.9607	12.103
2.9590	12.071
2.9573	12.038
2.9556	12.006
2.9539	11.976
2.9523	11.948
2.9506	11.923
2.9489	11.901
2.9472	11.881
2.9455	11.863
2.9439	11.848
2.9422	11.834
2.9405	11.823
2.9389	11.816
2.9372	11.812
2.9355	11.811
2.9339	11.812
2.9322	11.813
2.9306	11.814
2.9289	11.814
2.9272	11.814
2.9256	11.816
2.9239	11.821
2.9223	11.831
2.9207	11.846
2.9190	11.865
2.9174	11.889
2.9157	11.915
2.9141	11.944
2.9124	11.975
2.9108	12.009
2.9092	12.046
2.9075	12.087
2.9059	12.132
2.9043	12.181
2.9027	12.230
2.9010	12.279
2.8994	12.326
2.8978	12.371
2.8962	12.415
2.8946	12.462
2.8929	12.510
2.8913	12.561
2.8897	12.613
2.8881	12.665
2.8865	12.712
2.8849	12.753
2.8833	12.788
2.8817	12.817
2.8801	12.841
2.8785	12.862
2.8769	12.881
2.8753	12.899
2.8737	12.917
2.8721	12.933
2.8705	12.949
2.8689	12.962
2.8673	12.973
2.8658	12.978
2.8642	12.976
2.8626	12.965
2.8610	12.947
2.8594	12.922
2.8579	12.893
2.8563	12.862
2.8547	12.831
2.8531	12.800
2.8516	12.769
2.8500	12.736
2.8484	12.700
2.8469	12.658
2.8453	12.610
2.8437	12.557
2.8422	12.497
2.8406	12.434
2.8391	12.367
2.8375	12.298
2.8360	12.230
2.8344	12.162
2.8329	12.094
2.8313	12.026
2.8298	11.956
2.8282	11.882
2.8267	11.804
2.8252	11.719
2.8236	11.631
2.8221	11.540
2.8205	11.450
2.8190	11.363
2.8175	11.281
2.8159	11.204
2.8144	11.131
2.8129	11.058
2.8114	10.983
2.8098	10.904
2.8083	10.821
2.8068	10.735
2.8053	10.652
2.8038	10.575
2.8022	10.508
2.8007	10.449
2.7992	10.394
2.7977	10.338
2.7962	10.273
2.7947	10.192
2.7932	10.092
2.7917	9.9721
2.7902	9.8354
2.7887	9.6858
2.7872	9.5269
2.7857	9.3616
2.7842	9.1915
2.7827	9.0168
2.7812	8.8358
2.7797	8.6478
2.7782	8.4524
2.7767	8.2490
2.7752	8.0397
2.7738	7.8268
2.7723	7.6148
2.7708	7.4088
2.7693	7.2141
2.7678	7.0341
2.7664	6.8712
2.7649	6.7253
2.7634	6.5963
2.7619	6.4864
2.7605	6.3999
2.7590	6.3460
2.7575	6.3346
2.7561	6.3748
2.7546	6.4698
2.7531	6.6150
2.7517	6.7985
2.7502	7.0036
2.7488	7.2136
2.7473	7.4168
2.7458	7.6094
2.7444	7.7964
2.7429	7.9899
2.7415	8.2047
2.7400	8.4553
2.7386	8.7527
2.7371	9.1039
2.7357	9.5115
2.7343	9.9754
2.7328	10.494
2.7314	11.067
2.7299	11.698
2.7285	12.397
2.7271	13.184
2.7256	14.083
2.7242	15.121
2.7228	16.316
2.7213	17.665
2.7199	19.143
2.7185	20.704
2.7171	22.291
2.7156	23.854
2.7142	25.362
2.7128	26.805
2.7114	28.191
2.7100	29.533
2.7085	30.833
2.7071	32.078
2.7057	33.243
2.7043	34.294
2.7029	35.209
2.7015	35.983
2.7001	36.637
2.6987	37.214
2.6973	37.770
2.6959	38.358
2.6945	39.020
2.6931	39.769
2.6917	40.593
2.6903	41.454
2.6889	42.299
2.6875	43.076
2.6861	43.742
2.6847	44.280
2.6833	44.694
2.6819	45.008
2.6805	45.256
2.6791	45.467
2.6778	45.658
2.6764	45.823
2.6750	45.947
2.6736	46.017
2.6722	46.036
2.6709	46.035
2.6695	46.062
2.6681	46.173
2.6667	46.410
2.6654	46.774
2.6640	47.234
2.6626	47.731
2.6613	48.199
2.6599	48.588
2.6585	48.875
2.6572	49.070
2.6558	49.202
2.6545	49.303
2.6531	49.401
2.6517	49.507
2.6504	49.622
2.6490	49.735
2.6477	49.842
2.6463	49.941
2.6450	50.038
2.6436	50.138
2.6423	50.242
2.6409	50.337
2.6396	50.402
2.6382	50.410
2.6369	50.342
2.6356	50.197
2.6342	50.000
2.6329	49.795
2.6315	49.637
2.6302	49.565
2.6289	49.591
2.6275	49.693
2.6262	49.822
2.6249	49.917
2.6236	49.941
2.6222	49.888
2.6209	49.792
2.6196	49.709
2.6183	49.694
2.6169	49.772
2.6156	49.928
2.6143	50.106
2.6130	50.242
2.6117	50.284
2.6103	50.220
2.6090	50.086
2.6077	49.952
2.6064	49.892
2.6051	49.939
2.6038	50.077
2.6025	50.239
2.6012	50.338
2.5999	50.312
2.5986	50.157
2.5973	49.934
2.5960	49.742
2.5947	49.671
2.5934	49.761
2.5921	49.989
2.5908	50.279
2.5895	50.542
2.5882	50.716
2.5869	50.792
2.5856	50.807
2.5843	50.814
2.5830	50.854
2.5817	50.939
2.5805	51.049
2.5792	51.149
2.5779	51.212
2.5766	51.233
2.5753	51.230
2.5741	51.233
2.5728	51.262
2.5715	51.323
2.5702	51.397
2.5690	51.455
2.5677	51.473
2.5664	51.444
2.5651	51.391
2.5639	51.349
2.5626	51.359
2.5613	51.439
2.5601	51.586
2.5588	51.768
2.5575	51.939
2.5563	52.066
2.5550	52.130
2.5538	52.139
2.5525	52.116
2.5513	52.088
2.5500	52.075
2.5487	52.082
2.5475	52.106
2.5462	52.140
2.5450	52.175
2.5437	52.210
2.5425	52.243
2.5413	52.271
2.5400	52.293
2.5388	52.304
2.5375	52.303
2.5363	52.293
2.5350	52.280
2.5338	52.273
2.5326	52.277
2.5313	52.293
2.5301	52.320
2.5289	52.351
2.5276	52.380
2.5264	52.402
2.5252	52.414
2.5239	52.419
2.5227	52.417
2.5215	52.411
2.5202	52.402
2.5190	52.392
2.5178	52.381
2.5166	52.370
2.5154	52.359
2.5141	52.350
2.5129	52.341
2.5117	52.330
2.5105	52.318
2.5093	52.303
2.5081	52.285
2.5068	52.266
2.5056	52.249
2.5044	52.237
2.5032	52.231
2.5020	52.231
2.5008	52.234
2.4996	52.237
2.4984	52.238
2.4972	52.233
2.4960	52.224
2.4948	52.213
2.4936	52.205
2.4924	52.201
2.4912	52.202
2.4900	52.207
2.4888	52.213
2.4876	52.218
2.4864	52.220
2.4852	52.221
2.4840	52.223
2.4828	52.227
2.4816	52.234
2.4805	52.243
2.4793	52.251
2.4781	52.258
2.4769	52.262
2.4757	52.262
2.4745	52.260
2.4734	52.255
2.4722	52.250
2.4710	52.245
2.4698	52.241
2.4686	52.236
2.4675	52.229
2.4663	52.219
2.4651	52.207
2.4640	52.192
2.4628	52.176
2.4616	52.163
2.4604	52.152
2.4593	52.145
2.4581	52.139
2.4569	52.133
2.4558	52.126
2.4546	52.114
2.4535	52.098
2.4523	52.079
2.4511	52.059
2.4500	52.039
2.4488	52.022
2.4477	52.009
2.4465	52.002
2.4454	52.000
2.4442	52.004
2.4431	52.011
2.4419	52.022
2.4408	52.036
2.4396	52.051
2.4385	52.068
2.4373	52.086
2.4362	52.106
2.4350	52.130
2.4339	52.158
2.4327	52.193
2.4316	52.233
2.4305	52.278
2.4293	52.327
2.4282	52.377
2.4270	52.428
2.4259	52.478
2.4248	52.527
2.4236	52.576
2.4225	52.625
2.4214	52.673
2.4202	52.721
2.4191	52.769
2.4180	52.815
2.4169	52.861
2.4157	52.905
2.4146	52.947
2.4135	52.987
2.4124	53.026
2.4112	53.064
2.4101	53.102
2.4090	53.139
2.4079	53.175
2.4068	53.210
2.4056	53.242
2.4045	53.269
2.4034	53.289
2.4023	53.302
2.4012	53.309
2.4001	53.311
2.3990	53.309
2.3979	53.306
2.3967	53.302
2.3956	53.297
2.3945	53.292
2.3934	53.285
2.3923	53.277
2.3912	53.267
2.3901	53.254
2.3890	53.237
2.3879	53.215
2.3868	53.189
2.3857	53.159
2.3846	53.127
2.3835	53.096
2.3824	53.067
2.3813	53.039
2.3802	53.011
2.3791	52.983
2.3781	52.954
2.3770	52.924
2.3759	52.894
2.3748	52.863
2.3737	52.834
2.3726	52.805
2.3715	52.777
2.3704	52.749
2.3694	52.721
2.3683	52.693
2.3672	52.664
2.3661	52.633
2.3650	52.600
2.3640	52.563
2.3629	52.523
2.3618	52.481
2.3607	52.439
2.3597	52.398
2.3586	52.361
2.3575	52.328
2.3564	52.300
2.3554	52.276
2.3543	52.256
2.3532	52.240
2.3522	52.229
2.3511	52.226
2.3500	52.233
2.3490	52.251
2.3479	52.281
2.3468	52.320
2.3458	52.365
2.3447	52.413
2.3436	52.462
2.3426	52.513
2.3415	52.569
2.3405	52.632
2.3394	52.703
2.3384	52.783
2.3373	52.868
2.3363	52.956
2.3352	53.042
2.3342	53.126
2.3331	53.206
2.3321	53.285
2.3310	53.364
2.3300	53.445
2.3289	53.526
2.3279	53.607
2.3268	53.687
2.3258	53.765
2.3247	53.842
2.3237	53.916
2.3226	53.988
2.3216	54.057
2.3206	54.125
2.3195	54.192
2.3185	54.259
2.3175	54.327
2.3164	54.397
2.3154	54.470
2.3144	54.544
2.3133	54.616
2.3123	54.684
2.3113	54.745
2.3102	54.797
2.3092	54.841
2.3082	54.878
2.3071	54.912
2.3061	54.946
2.3051	54.983
2.3041	55.024
2.3030	55.069
2.3020	55.117
2.3010	55.165
2.3000	55.209
2.2990	55.248
2.2979	55.280
2.2969	55.306
2.2959	55.326
2.2949	55.342
2.2939	55.357
2.2929	55.370
2.2918	55.383
2.2908	55.395
2.2898	55.404
2.2888	55.410
2.2878	55.414
2.2868	55.416
2.2858	55.417
2.2848	55.418
2.2838	55.420
2.2828	55.421
2.2818	55.420
2.2808	55.416
2.2798	55.407
2.2787	55.394
2.2777	55.377
2.2767	55.359
2.2757	55.339
2.2747	55.316
2.2738	55.287
2.2728	55.251
2.2718	55.207
2.2708	55.156
2.2698	55.100
2.2688	55.044
2.2678	54.990
2.2668	54.938
2.2658	54.890
2.2648	54.845
2.2638	54.803
2.2628	54.767
2.2618	54.736
2.2609	54.711
2.2599	54.691
2.2589	54.675
2.2579	54.659
2.2569	54.644
2.2559	54.631
2.2550	54.622
2.2540	54.621
2.2530	54.627
2.2520	54.640
2.2510	54.656
2.2501	54.673
2.2491	54.689
2.2481	54.703
2.2471	54.719
2.2462	54.738
2.2452	54.761
2.2442	54.786
2.2433	54.811
2.2423	54.831
2.2413	54.841
2.2403	54.841
2.2394	54.831
2.2384	54.814
2.2374	54.792
2.2365	54.768
2.2355	54.742
2.2345	54.713
2.2336	54.682
2.2326	54.648
2.2317	54.612
2.2307	54.575
2.2297	54.539
2.2288	54.503
2.2278	54.466
2.2269	54.424
2.2259	54.376
2.2250	54.318
2.2240	54.252
2.2231	54.178
2.2221	54.100
2.2211	54.022
2.2202	53.946
2.2192	53.876
2.2183	53.810
2.2173	53.750
2.2164	53.695
2.2155	53.643
2.2145	53.593
2.2136	53.546
2.2126	53.500
2.2117	53.456
2.2107	53.415
2.2098	53.380
2.2088	53.352
2.2079	53.331
2.2070	53.316
2.2060	53.305
2.2051	53.297
2.2041	53.291
2.2032	53.288
2.2023	53.292
2.2013	53.305
2.2004	53.331
2.1995	53.374
2.1985	53.431
2.1976	53.501
2.1967	53.582
2.1957	53.668
2.1948	53.761
2.1939	53.858
2.1930	53.962
2.1920	54.075
2.1911	54.195
2.1902	54.323
2.1893	54.456
2.1883	54.592
2.1874	54.727
2.1865	54.861
2.1856	54.992
2.1846	55.120
2.1837	55.243
2.1828	55.363
2.1819	55.479
2.1810	55.593
2.1800	55.705
2.1791	55.813
2.1782	55.915
2.1773	56.008
2.1764	56.089
2.1755	56.158
2.1746	56.216
2.1736	56.266
2.1727	56.315
2.1718	56.365
2.1709	56.419
2.1700	56.478
2.1691	56.539
2.1682	56.596
2.1673	56.647
2.1664	56.688
2.1655	56.720
2.1646	56.745
2.1637	56.767
2.1628	56.792
2.1619	56.820
2.1610	56.852
2.1601	56.887
2.1592	56.920
2.1583	56.950
2.1574	56.974
2.1565	56.992
2.1556	57.005
2.1547	57.014
2.1538	57.021
2.1529	57.024
2.1520	57.024
2.1511	57.021
2.1502	57.015
2.1493	57.010
2.1484	57.008
2.1475	57.014
2.1466	57.026
2.1458	57.044
2.1449	57.061
2.1440	57.075
2.1431	57.081
2.1422	57.081
2.1413	57.075
2.1404	57.066
2.1396	57.058
2.1387	57.050
2.1378	57.044
2.1369	57.038
2.1360	57.031
2.1352	57.023
2.1343	57.015
2.1334	57.010
2.1325	57.010
2.1316	57.015
2.1308	57.025
2.1299	57.035
2.1290	57.044
2.1281	57.047
2.1273	57.044
2.1264	57.035
2.1255	57.022
2.1247	57.007
2.1238	56.991
2.1229	56.976
2.1220	56.964
2.1212	56.955
2.1203	56.950
2.1194	56.951
2.1186	56.959
2.1177	56.972
2.1168	56.989
2.1160	57.008
2.1151	57.023
2.1143	57.031
2.1134	57.031
2.1125	57.024
2.1117	57.015
2.1108	57.008
2.1100	57.006
2.1091	57.010
2.1082	57.020
2.1074	57.033
2.1065	57.046
2.1057	57.058
2.1048	57.068
2.1040	57.076
2.1031	57.084
2.1023	57.091
2.1014	57.096
2.1005	57.099
2.0997	57.101
2.0988	57.104
2.0980	57.109
2.0971	57.121
2.0963	57.139
2.0955	57.164
2.0946	57.191
2.0938	57.217
2.0929	57.237
2.0921	57.248
2.0912	57.249
2.0904	57.241
2.0895	57.227
2.0887	57.212
2.0879	57.200
2.0870	57.193
2.0862	57.193
2.0853	57.199
2.0845	57.214
2.0837	57.226
2.0828	57.237
2.0820	57.261
2.0812	57.236
2.0803	57.251
2.0795	57.252
2.0760	57.252
2.0720	57.508
2.0680	57.664
2.0640	57.508
2.0600	57.427
2.0560	57.736
2.0520	57.829
2.0480	57.622
2.0440	57.529
2.0400	56.997
2.0360	56.947
2.0320	56.855
2.0280	56.745
2.0240	56.453
2.0200	56.420
2.0160	56.236
2.0120	56.420
2.0080	56.263
2.0040	56.164
2.0000	55.750
1.9960	55.540
1.9920	55.325
1.9880	55.513
1.9840	55.373
1.9800	55.084
1.9760	54.728
1.9720	54.770
1.9680	54.723
1.9640	54.590
1.9600	54.267
1.9560	54.173
1.9520	54.418
1.9480	54.328
1.9440	54.189
1.9400	53.827
1.9360	53.512
1.9320	53.565
1.9280	53.574
1.9240	53.863
1.9200	53.775
1.9160	53.405
1.9120	53.631
1.9080	54.333
1.9040	54.106
1.9000	54.742
1.8960	54.945
1.8920	54.754
1.8880	54.718
1.8840	54.467
1.8800	54.051
1.8760	54.144
1.8720	54.013
1.8680	54.024
1.8640	54.728
1.8600	55.098
1.8560	55.280
1.8520	55.145
1.8480	55.077
1.8440	55.065
1.8400	54.819
1.8360	54.928
1.8320	55.193
1.8280	55.256
1.8240	55.256
1.8200	55.006
1.8160	54.636
1.8120	54.310
1.8080	54.403
1.8040	54.678
1.8000	54.491
1.7960	54.491
1.7920	54.357
1.7880	53.775
1.7840	53.736
1.7800	53.916
1.7760	53.785
1.7720	53.788
1.7680	53.788
1.7640	53.474
1.7600	53.429
1.7560	53.383
1.7520	53.560
1.7480	53.248
1.7440	53.205
1.7400	53.520
1.7360	53.429
1.7320	53.343
1.7280	53.480
1.7240	53.437
1.7200	53.529
1.7160	53.620
1.7120	53.617
1.7080	53.343
1.7040	53.434
1.7000	53.210
1.6960	52.988
1.6920	53.033
1.6880	53.033
1.6840	52.867
1.6800	52.857
1.6760	52.724
1.6720	52.679
1.6680	52.326
1.6640	52.337
1.6600	52.472
1.6560	52.161
1.6520	52.381
1.6480	52.160
1.6440	52.160
1.6400	52.206
1.6360	51.852
1.6320	51.808
1.6280	52.251
1.6240	51.764
1.6200	51.544
1.6160	51.545
1.6120	51.544
1.6080	51.368
1.6040	51.280
1.6000	51.281
1.5960	51.193
1.5920	51.499
1.5880	51.586
1.5840	51.100
1.5800	50.968
1.5760	50.968
1.5720	50.838
1.5680	50.838
1.5640	50.881
1.5600	50.508
1.5560	50.314
1.5520	50.286
1.5480	50.485
1.5440	50.286
1.5400	50.029
1.5360	49.902
1.5320	49.944
1.5280	49.727
1.5240	49.472
1.5200	49.506
1.5160	49.715
1.5120	49.547
1.5080	49.206
1.5040	48.564
1.5000	48.453
1.4960	48.482
1.4920	48.907
1.4880	49.458
1.4840	48.793
1.4800	48.700
1.4760	48.700
1.4720	48.570
1.4680	48.488
1.4640	48.323
1.4600	48.224
1.4560	48.018
1.4520	48.025
1.4480	47.978
1.4440	47.729
1.4400	47.398
1.4360	47.136
1.4320	47.292
1.4280	47.199
1.4240	47.023
1.4200	46.720
1.4160	46.154
1.4120	45.378
1.4080	44.729
1.4040	44.479
1.4000	44.615
1.3960	44.983
1.3920	45.305
1.3880	45.960
1.3840	46.280
1.3800	46.250
1.3760	46.340
1.3720	46.290
1.3680	46.191
1.3640	46.277
1.3600	45.546
1.3560	45.183
1.3520	45.265
1.3480	45.254
1.3440	45.181
1.3400	45.280
1.3360	45.282
1.3320	44.812
1.3280	44.639
1.3240	44.563
1.3200	44.699
1.3160	44.687
1.3120	44.445
1.3080	44.247
1.3040	43.911
1.3000	43.751
1.2960	43.490
1.2920	43.424
1.2880	43.146
1.2840	42.884
1.2800	42.764
1.2760	42.503
1.2720	42.505
1.2680	42.524
1.2640	42.866
1.2600	42.806
1.2560	42.817
1.2520	42.630
1.2480	42.649
1.2440	42.649
1.2400	42.632
1.2360	42.796
1.2320	42.696
1.2280	42.001
1.2240	41.725
1.2200	41.582
1.2160	41.409
1.2120	41.306
1.2080	41.428
1.2040	41.444
1.2000	40.905
1.1960	40.301
1.1920	40.044
1.1880	39.801
1.1840	39.614
1.1800	39.460
1.1760	39.394
1.1720	39.329
1.1680	38.881
1.1640	38.730
1.1600	38.621
1.1560	38.294
1.1520	38.269
1.1480	38.221
1.1440	38.069
1.1400	38.412
1.1360	38.604
1.1320	38.274
1.1280	38.361
1.1240	37.950
1.1200	38.141
1.1160	38.328
1.1120	38.007
1.1080	37.797
1.1040	37.766
1.1000	37.797
1.0960	37.740
1.0920	37.688
1.0880	37.393
1.0840	37.362
1.0800	37.357
1.0760	37.451
1.0720	37.269
1.0680	37.304
1.0640	37.238
1.0600	36.978
1.0560	36.890
1.0520	36.879
1.0480	36.764
1.0440	36.564
1.0400	36.829
1.0360	36.978
1.0320	37.002
1.0280	36.703
1.0240	36.733
1.0200	36.596
1.0160	36.657
1.0120	36.620
1.0080	36.437
1.0040	36.317
1.0000	36.110
0.99600	36.437
0.99200	36.528
0.98800	36.290
0.98400	36.112
0.98000	35.903
0.97600	35.964
0.97200	35.905
0.96800	35.935
0.96400	35.817
0.96000	35.670
0.95600	35.730
0.95200	35.572
0.94800	35.395
0.94400	35.631
0.94000	35.483
0.93600	35.307
0.93200	35.307
0.92800	35.219
0.92400	34.985
0.92000	35.043
0.91600	35.072
0.91200	35.062
0.90800	35.004
0.90400	35.061
0.90000	35.091
0.89600	35.120
0.89200	35.061
0.88800	35.061
0.88400	35.335
0.88000	35.483
0.87600	35.630
0.87200	35.660
0.86800	35.988
0.86400	36.199
0.86000	36.488
0.85600	36.636
0.85200	36.908
0.84800	36.913
0.84400	37.350
0.84000	37.691
0.83600	38.015
0.83200	38.260
0.82800	38.708
0.82400	38.957
0.82000	39.093
0.81600	39.438
0.81200	39.970
0.80800	39.935
0.80400	40.053
0.80000	40.304
0.79900	40.304
0.79800	40.304
0.79700	40.461
0.79600	40.334
0.79500	40.497
0.79400	40.176
0.79300	40.149
0.79200	40.118
0.79100	40.022
0.79000	40.115
0.78900	40.207
0.78800	39.984
0.78700	39.980
0.78600	40.108
0.78500	40.108
0.78400	40.108
0.78300	40.042
0.78200	39.980
0.78100	39.818
0.78000	40.105
0.77900	40.136
0.77800	39.849
0.77700	39.691
0.77600	39.629
0.77500	39.846
0.77400	39.595
0.77300	39.594
0.77200	39.718
0.77100	39.528
0.77000	39.625
0.76900	39.621
0.76800	39.529
0.76700	39.621
0.76600	39.615
0.76500	39.428
0.76400	39.265
0.76300	39.138
0.76200	39.017
0.76100	39.076
0.76000	39.011
0.75900	39.169
0.75800	39.199
0.75700	38.939
0.75600	38.878
0.75500	38.848
0.75400	38.878
0.75300	38.908
0.75200	38.848
0.75100	38.625
0.75000	38.655
0.74900	38.558
0.74800	38.565
0.74700	38.902
0.74600	38.805
0.74500	38.745
0.74400	38.902
0.74300	38.552
0.74200	38.462
0.74100	38.702
0.74000	38.635
0.73900	38.552
0.73800	38.455
0.73700	38.388
0.73600	38.455
0.73500	38.358
0.73400	38.008
0.73300	38.224
0.73200	38.471
0.73100	38.508
0.73000	38.448
0.72900	38.441
0.72800	37.931
0.72700	38.060
0.72600	37.862
0.72500	38.254
0.72400	38.351
0.72300	38.077
0.72200	38.077
0.72100	38.031
0.72000	37.934
0.71900	37.837
0.71800	37.955
0.71700	37.925
0.71600	37.649
0.71500	37.828
0.71400	38.231
0.71300	38.494
0.71200	38.177
0.71100	37.653
0.71000	37.460
0.70900	37.344
0.70800	37.450
0.70700	37.769
0.70600	37.952
0.70500	38.169
0.70400	38.169
0.70300	37.923
0.70200	37.719
0.70100	37.687
0.70000	37.755
0.69900	37.748
0.69800	37.771
0.69700	38.261
0.69600	38.082
0.69500	38.090
0.69400	38.129
0.69300	37.846
0.69200	37.946
0.69100	37.837
0.69000	37.707
0.68900	37.959
0.68800	37.868
0.68700	38.037
0.68600	38.037
0.68500	38.029
0.68400	38.068
0.68300	37.929
0.68200	38.121
0.68100	38.060
0.68000	38.068
0.67900	37.677
0.67800	37.477
0.67700	37.981
0.67600	38.021
0.67500	38.029
0.67400	37.759
0.67300	37.527
0.67200	37.677
0.67100	37.960
0.67000	37.929
0.66900	37.937
0.66800	38.184
0.66700	38.144
0.66600	37.780
0.66500	37.728
0.66400	37.868
0.66300	37.990
0.66200	38.316
0.66100	38.184
0.66000	37.990
0.65900	37.981
0.65800	38.176
0.65700	38.067
0.65600	37.803
0.65500	37.781
0.65400	38.005
0.65300	37.974
0.65200	37.964
0.65100	37.894
0.65000	37.903
0.64900	37.881
0.64800	38.083
0.64700	38.176
0.64600	38.309
0.64500	38.176
0.64400	38.083
0.64300	38.184
0.64200	38.145
0.64100	38.207
0.64000	38.005
0.63900	38.207
0.63800	38.105
0.63700	37.943
0.63600	37.912
0.63500	38.083
0.63400	38.114
0.63300	38.114
0.63200	38.145
0.63100	37.881
0.63000	38.270
0.62900	38.270
0.62800	38.067
0.62700	37.974
0.62600	37.873
0.62500	37.974
0.62400	38.005
0.62300	38.130
0.62200	38.130
0.62100	37.997
0.62000	38.028
0.61900	38.130
0.61800	38.161
0.61700	38.098
0.61600	37.864
0.61500	37.701
0.61400	37.803
0.61300	37.741
0.61200	37.671
0.61100	37.772
0.61000	37.772
0.60900	37.772
0.60800	37.873
0.60700	37.904
0.60600	37.966
0.60500	37.997
0.60400	37.895
0.60300	37.752
0.60200	37.878
0.60100	37.799
0.60000	37.705
0.59900	37.674
0.59800	37.799
0.59700	37.861
0.59600	37.987
0.59500	38.082
0.59400	38.019
0.59300	38.050
0.59200	37.884
0.59100	37.884
0.59000	37.790
0.58900	38.019
0.58800	38.050
0.58700	37.884
0.58600	37.781
0.58500	37.687
0.58400	37.678
0.58300	37.875
0.58200	37.687
0.58100	37.844
0.58000	37.781
0.57900	37.844
0.57800	37.781
0.57700	37.884
0.57600	38.193
0.57500	38.193
0.57400	38.095
0.57300	38.153
0.57200	37.904
0.57100	38.067
0.57000	37.926
0.56900	37.692
0.56800	37.459
0.56700	37.459
0.56600	37.388
0.56500	37.388
0.56400	37.286
0.56300	37.357
0.56200	37.154
0.56100	37.215
0.56000	37.103
0.55900	35.824
0.55800	36.622
0.55700	36.245
0.55600	36.077
0.55500	36.160
0.55400	35.966
0.55300	35.800
0.55200	35.908
0.55100	35.784
0.55000	35.950
0.54900	36.235
0.54800	36.334
0.54700	36.035
0.54600	36.107
0.54500	35.782
0.54400	35.558
0.54300	35.795
0.54200	35.625
0.54100	35.595
0.54000	35.499
0.53900	35.344
0.53800	35.158
0.53700	35.281
0.53600	35.070
0.53500	35.070
0.53400	35.054
0.53300	34.944
0.53200	34.834
0.53100	34.861
0.53000	34.844
0.52900	34.872
0.52800	34.800
0.52700	34.520
0.52600	34.340
0.52500	34.249
0.52400	34.383
0.52300	33.820
0.52200	33.794
0.52100	33.846
0.52000	33.779
0.51900	33.710
0.51800	33.477
0.51700	33.451
0.51600	33.381
0.51500	33.102
0.51400	32.708
0.51300	32.905
0.51200	32.958
0.51100	32.807
0.51000	32.562
0.50900	32.710
0.50800	32.119
0.50700	31.921
0.50600	31.582
0.50500	31.526
0.50400	31.597
0.50300	31.748
0.50200	31.819
0.50100	31.230
0.50000	31.155
0.49900	31.102
0.49800	30.812
0.49700	30.706
0.49600	30.616
0.49500	30.486
0.49400	30.449
0.49300	30.176
0.49200	30.132
0.49100	29.827
0.49000	29.992
0.48900	29.587
0.48800	29.565
0.48700	29.424
0.48600	29.251
0.48500	29.251
0.48400	29.249
0.48300	29.138
0.48200	29.087
0.48100	28.904
0.48000	28.941
0.47900	28.487
0.47800	28.472
0.47700	28.373
0.47600	28.413
0.47500	28.393
0.47400	28.077
0.47300	28.018
0.47200	28.018
0.47100	27.861
0.47000	27.822
0.46900	27.472
0.46800	27.472
0.46700	27.608
0.46600	27.472
0.46500	27.511
0.46400	27.220
0.46300	27.387
0.46200	27.216
0.46100	27.235
0.46000	27.003
0.45900	27.228
0.45800	27.362
0.45700	27.028
0.45600	26.936
0.45500	26.795
0.45400	26.917
0.45300	26.789
0.45200	26.620
0.45100	26.609
0.45000	26.389
0.44900	26.269
0.44800	26.269
0.44700	26.494
0.44600	26.301
0.44500	26.111
0.44400	25.493
0.44300	25.753
0.44200	25.753
0.44100	25.591
0.44000	25.658
0.43900	25.347
0.43800	25.238
0.43700	25.007
0.43600	24.727
0.43500	24.621
0.43400	24.548
0.43300	24.372
0.43200	24.027
0.43100	24.031
0.43000	23.850
0.42900	24.043
0.42800	23.403
0.42700	23.370
0.42600	23.030
0.42500	22.982
0.42400	22.603
0.42300	22.673
0.42200	22.503
0.42100	22.134
0.42000	22.228
0.41900	22.134
0.41800	21.780
0.41700	21.780
0.41600	21.780
0.41500	21.780
0.41400	21.580
0.41300	21.308
0.41200	21.510
0.41100	21.145
0.41000	20.975
0.40900	20.744
0.40800	20.683
0.40700	20.714
0.40600	20.403
0.40500	20.305
0.40400	20.207
0.40300	20.107
0.40200	20.101
0.40100	19.984
0.40000	20.023
0.0000	
