Name: Purple-banded Sandstone 
Type:  Rocks
Class:  Sedimentary
Subclass: Sandstone 
Particle Size:  0 - 75 Micrometers
Sample No.:  sandstone.6
Owner:  JHU
Wavelength Range:  All
Origin:  Sample No. 453,  The Hunt and Salisbury Collection at the U.S. 
Geological Survey, Denver, Co.
Description: This low porosity sandstone contains fine-grained, well-
sorted subangular quartz set in a ferruginous clay matrix. There has 
been a moderate amount of silica recrystallization, and in places, it 
acts as silica cement In addition, there has been minor pressure 
solution of the quartz. There are scattered opaques, brown and green 
glauconite, zircon, and a trace of microcline.
Measurement:  Directional (10 Degree) Hemispherical Reflectance
First Column:  X
Second Column:  Y  
X Units:  Wavelength (micrometers)
Y Units:  Reflectance (percent)
First X Value: 14.9831
Last X Value:  0.4
Number of X Values: 2868
Additional Information:  None

14.983	2.2595
14.940	2.1029
14.897	1.8943
14.854	1.7072
14.812	1.5992
14.770	1.5732
14.728	1.5947
14.686	1.6241
14.645	1.6300
14.603	1.5940
14.562	1.5218
14.521	1.4299
14.481	1.3371
14.441	1.2542
14.400	1.1869
14.361	1.1417
14.321	1.1268
14.281	1.1424
14.242	1.1893
14.203	1.2703
14.164	1.3887
14.126	1.5424
14.087	1.7264
14.049	1.9362
14.011	2.1645
13.973	2.3963
13.936	2.6180
13.899	2.8174
13.861	2.9834
13.824	3.1061
13.788	3.1816
13.751	3.2131
13.715	3.2091
13.679	3.1790
13.643	3.1321
13.607	3.0734
13.571	3.0024
13.536	2.9145
13.500	2.8075
13.465	2.6860
13.430	2.5607
13.396	2.4437
13.361	2.3466
13.327	2.2767
13.293	2.2348
13.259	2.2142
13.225	2.2059
13.191	2.2038
13.158	2.2033
13.124	2.2022
13.091	2.2017
13.058	2.2066
13.026	2.2232
12.993	2.2557
12.960	2.3033
12.928	2.3601
12.896	2.4117
12.864	2.4373
12.832	2.4172
12.800	2.3416
12.769	2.2159
12.737	2.0608
12.706	1.9068
12.675	1.7851
12.644	1.7150
12.614	1.6984
12.583	1.7219
12.552	1.7605
12.522	1.7899
12.492	1.7932
12.462	1.7650
12.432	1.7117
12.402	1.6504
12.373	1.6035
12.343	1.5909
12.314	1.6272
12.285	1.7183
12.256	1.8618
12.227	2.0468
12.198	2.2583
12.169	2.4835
12.141	2.7132
12.113	2.9415
12.084	3.1653
12.056	3.3865
12.028	3.6067
12.000	3.8248
11.973	4.0379
11.945	4.2426
11.918	4.4339
11.890	4.6070
11.863	4.7593
11.836	4.8921
11.809	5.0091
11.782	5.1117
11.755	5.2017
11.729	5.2798
11.702	5.3428
11.676	5.3857
11.650	5.4048
11.624	5.3992
11.598	5.3681
11.572	5.3115
11.546	5.2332
11.520	5.1377
11.495	5.0276
11.469	4.9080
11.444	4.7856
11.419	4.6679
11.394	4.5597
11.369	4.4640
11.344	4.3801
11.319	4.3015
11.294	4.2179
11.270	4.1199
11.245	4.0012
11.221	3.8606
11.197	3.7019
11.173	3.5312
11.149	3.3545
11.125	3.1757
11.101	2.9983
11.077	2.8264
11.054	2.6639
11.030	2.5157
11.007	2.3864
10.983	2.2784
10.960	2.1903
10.937	2.1178
10.914	2.0582
10.891	2.0084
10.868	1.9672
10.846	1.9345
10.823	1.9106
10.800	1.8974
10.778	1.8924
10.755	1.8929
10.733	1.8948
10.711	1.8943
10.689	1.8881
10.667	1.8765
10.645	1.8640
10.623	1.8590
10.602	1.8694
10.580	1.9016
10.558	1.9580
10.537	2.0369
10.516	2.1318
10.494	2.2363
10.473	2.3433
10.452	2.4480
10.431	2.5462
10.410	2.6365
10.389	2.7177
10.368	2.7890
10.348	2.8506
10.327	2.9041
10.306	2.9505
10.286	2.9898
10.266	3.0218
10.245	3.0457
10.225	3.0585
10.205	3.0585
10.185	3.0464
10.165	3.0241
10.145	2.9936
10.125	2.9574
10.106	2.9192
10.086	2.8816
10.066	2.8468
10.047	2.8181
10.027	2.7994
10.008	2.7918
9.9887	2.7923
9.9695	2.7956
9.9504	2.7956
9.9313	2.7857
9.9123	2.7627
9.8934	2.7279
9.8746	2.6862
9.8558	2.6443
9.8371	2.6099
9.8185	2.5929
9.7999	2.6021
9.7814	2.6450
9.7630	2.7246
9.7447	2.8385
9.7264	2.9784
9.7082	3.1319
9.6900	3.2853
9.6719	3.4291
9.6539	3.5579
9.6360	3.6718
9.6181	3.7739
9.6003	3.8696
9.5825	3.9638
9.5649	4.0614
9.5472	4.1656
9.5297	4.2786
9.5122	4.4012
9.4948	4.5343
9.4774	4.6783
9.4601	4.8353
9.4429	5.0079
9.4257	5.1988
9.4086	5.4075
9.3916	5.6293
9.3746	5.8553
9.3577	6.0743
9.3408	6.2744
9.3240	6.4445
9.3073	6.5764
9.2906	6.6661
9.2740	6.7114
9.2574	6.7116
9.2409	6.6687
9.2245	6.5880
9.2081	6.4755
9.1918	6.3377
9.1755	6.1821
9.1593	6.0151
9.1431	5.8406
9.1270	5.6594
9.1110	5.4697
9.0950	5.2680
9.0791	5.0494
9.0632	4.8116
9.0474	4.5589
9.0316	4.3077
9.0159	4.0853
9.0003	3.9274
8.9847	3.8686
8.9691	3.9340
8.9536	4.1301
8.9382	4.4424
8.9228	4.8391
8.9075	5.2789
8.8922	5.7205
8.8770	6.1297
8.8618	6.4831
8.8467	6.7682
8.8316	6.9825
8.8166	7.1308
8.8016	7.2210
8.7867	7.2648
8.7718	7.2738
8.7570	7.2565
8.7422	7.2129
8.7275	7.1331
8.7129	7.0017
8.6982	6.8058
8.6837	6.5484
8.6692	6.2579
8.6547	5.9881
8.6403	5.8034
8.6259	5.7537
8.6116	5.8574
8.5973	6.0930
8.5830	6.4089
8.5688	6.7414
8.5547	7.0389
8.5406	7.2738
8.5266	7.4443
8.5126	7.5637
8.4986	7.6506
8.4847	7.7207
8.4708	7.7834
8.4570	7.8452
8.4432	7.9099
8.4295	7.9809
8.4158	8.0622
8.4022	8.1559
8.3886	8.2637
8.3750	8.3838
8.3615	8.5147
8.3481	8.6542
8.3347	8.8003
8.3213	8.9509
8.3079	9.1063
8.2946	9.2666
8.2814	9.4321
8.2682	9.6010
8.2550	9.7684
8.2419	9.9268
8.2288	10.065
8.2158	10.167
8.2028	10.217
8.1898	10.196
8.1769	10.093
8.1640	9.9010
8.1512	9.6230
8.1384	9.2735
8.1256	8.8725
8.1129	8.4439
8.1002	8.0093
8.0876	7.5866
8.0750	7.1862
8.0624	6.8137
8.0499	6.4705
8.0374	6.1553
8.0250	5.8650
8.0126	5.5936
8.0002	5.3338
7.9879	5.0788
7.9756	4.8216
7.9634	4.5599
7.9512	4.2949
7.9390	4.0325
7.9268	3.7803
7.9147	3.5461
7.9027	3.3353
7.8906	3.1504
7.8786	2.9898
7.8667	2.8515
7.8548	2.7329
7.8429	2.6324
7.8310	2.5500
7.8192	2.4856
7.8075	2.4390
7.7957	2.4070
7.7840	2.3845
7.7723	2.3660
7.7607	2.3466
7.7491	2.3232
7.7375	2.2955
7.7260	2.2654
7.7145	2.2355
7.7031	2.2071
7.6916	2.1799
7.6802	2.1529
7.6689	2.1249
7.6575	2.0958
7.6462	2.0674
7.6350	2.0425
7.6238	2.0231
7.6126	2.0108
7.6014	2.0065
7.5903	2.0101
7.5792	2.0200
7.5681	2.0350
7.5571	2.0537
7.5461	2.0724
7.5351	2.0885
7.5242	2.1006
7.5133	2.1091
7.5024	2.1159
7.4916	2.1235
7.4807	2.1342
7.4700	2.1496
7.4592	2.1692
7.4485	2.1920
7.4378	2.2171
7.4272	2.2443
7.4165	2.2725
7.4059	2.3014
7.3954	2.3310
7.3848	2.3608
7.3743	2.3911
7.3639	2.4226
7.3534	2.4558
7.3430	2.4911
7.3326	2.5290
7.3222	2.5709
7.3119	2.6194
7.3016	2.6772
7.2914	2.7475
7.2811	2.8318
7.2709	2.9282
7.2607	3.0320
7.2506	3.1369
7.2404	3.2370
7.2303	3.3284
7.2203	3.4087
7.2102	3.4776
7.2002	3.5368
7.1902	3.5885
7.1803	3.6361
7.1703	3.6837
7.1604	3.7362
7.1506	3.7973
7.1407	3.8684
7.1309	3.9468
7.1211	4.0271
7.1113	4.1024
7.1016	4.1663
7.0919	4.2158
7.0822	4.2520
7.0725	4.2797
7.0629	4.3072
7.0533	4.3425
7.0437	4.3917
7.0341	4.4555
7.0246	4.5305
7.0151	4.6118
7.0056	4.6944
6.9962	4.7756
6.9867	4.8573
6.9773	4.9445
6.9679	5.0416
6.9586	5.1491
6.9493	5.2630
6.9400	5.3762
6.9307	5.4780
6.9214	5.5590
6.9122	5.6149
6.9030	5.6473
6.8938	5.6606
6.8847	5.6639
6.8755	5.6687
6.8664	5.6829
6.8573	5.7084
6.8483	5.7430
6.8393	5.7819
6.8302	5.8186
6.8213	5.8467
6.8123	5.8652
6.8034	5.8782
6.7944	5.8894
6.7855	5.9000
6.7767	5.9100
6.7678	5.9178
6.7590	5.9209
6.7502	5.9168
6.7414	5.9074
6.7327	5.8986
6.7239	5.8998
6.7152	5.9206
6.7065	5.9685
6.6979	6.0483
6.6892	6.1582
6.6806	6.2875
6.6720	6.4201
6.6634	6.5404
6.6549	6.6401
6.6464	6.7170
6.6378	6.7739
6.6294	6.8165
6.6209	6.8471
6.6124	6.8632
6.6040	6.8591
6.5956	6.8331
6.5872	6.7924
6.5789	6.7507
6.5705	6.7275
6.5622	6.7436
6.5539	6.8156
6.5456	6.9508
6.5374	7.1485
6.5292	7.4010
6.5209	7.6946
6.5128	8.0174
6.5046	8.3617
6.4964	8.7241
6.4883	9.1013
6.4802	9.4828
6.4721	9.8499
6.4640	10.175
6.4560	10.432
6.4480	10.603
6.4399	10.690
6.4320	10.711
6.4240	10.696
6.4160	10.668
6.4081	10.633
6.4002	10.580
6.3923	10.491
6.3844	10.349
6.3766	10.147
6.3687	9.8958
6.3609	9.6204
6.3531	9.3429
6.3454	9.0764
6.3376	8.8228
6.3299	8.5784
6.3221	8.3364
6.3144	8.0908
6.3068	7.8412
6.2991	7.5947
6.2914	7.3588
6.2838	7.1379
6.2762	6.9347
6.2686	6.7495
6.2611	6.5835
6.2535	6.4362
6.2460	6.3071
6.2385	6.1972
6.2310	6.1065
6.2235	6.0360
6.2160	5.9879
6.2086	5.9678
6.2011	5.9858
6.1937	6.0537
6.1863	6.1814
6.1790	6.3727
6.1716	6.6244
6.1643	6.9247
6.1570	7.2541
6.1496	7.5907
6.1424	7.9168
6.1351	8.2211
6.1278	8.5000
6.1206	8.7596
6.1134	9.0089
6.1062	9.2510
6.0990	9.4783
6.0918	9.6782
6.0847	9.8380
6.0776	9.9489
6.0704	10.013
6.0633	10.051
6.0563	10.093
6.0492	10.159
6.0421	10.251
6.0351	10.358
6.0281	10.460
6.0211	10.528
6.0141	10.536
6.0071	10.482
6.0002	10.377
5.9932	10.234
5.9863	10.067
5.9794	9.8892
5.9725	9.7092
5.9657	9.5342
5.9588	9.3708
5.9520	9.2389
5.9451	9.1652
5.9383	9.1679
5.9315	9.2531
5.9247	9.4127
5.9180	9.6251
5.9112	9.8655
5.9045	10.112
5.8978	10.360
5.8911	10.619
5.8844	10.897
5.8777	11.196
5.8711	11.505
5.8644	11.806
5.8578	12.077
5.8512	12.303
5.8446	12.484
5.8380	12.639
5.8314	12.793
5.8249	12.974
5.8184	13.188
5.8118	13.430
5.8053	13.681
5.7988	13.913
5.7923	14.104
5.7859	14.249
5.7794	14.365
5.7730	14.478
5.7666	14.606
5.7602	14.757
5.7538	14.926
5.7474	15.092
5.7410	15.231
5.7347	15.324
5.7283	15.370
5.7220	15.376
5.7157	15.351
5.7094	15.300
5.7031	15.224
5.6969	15.118
5.6906	14.970
5.6844	14.771
5.6782	14.516
5.6719	14.203
5.6657	13.840
5.6596	13.437
5.6534	13.017
5.6472	12.604
5.6411	12.221
5.6349	11.886
5.6288	11.607
5.6227	11.380
5.6166	11.194
5.6106	11.038
5.6045	10.903
5.5984	10.784
5.5924	10.683
5.5864	10.605
5.5804	10.555
5.5744	10.533
5.5684	10.537
5.5624	10.561
5.5564	10.597
5.5505	10.635
5.5445	10.668
5.5386	10.693
5.5327	10.710
5.5268	10.720
5.5209	10.726
5.5151	10.731
5.5092	10.742
5.5033	10.766
5.4975	10.813
5.4917	10.893
5.4859	11.016
5.4801	11.186
5.4743	11.398
5.4685	11.640
5.4628	11.889
5.4570	12.116
5.4513	12.292
5.4455	12.389
5.4398	12.391
5.4341	12.293
5.4284	12.100
5.4228	11.825
5.4171	11.482
5.4114	11.085
5.4058	10.648
5.4002	10.187
5.3945	9.7184
5.3889	9.2652
5.3833	8.8484
5.3778	8.4851
5.3722	8.1858
5.3666	7.9556
5.3611	7.7948
5.3555	7.6984
5.3500	7.6586
5.3445	7.6664
5.3390	7.7105
5.3335	7.7789
5.3280	7.8604
5.3225	7.9473
5.3171	8.0354
5.3116	8.1254
5.3062	8.2201
5.3008	8.3260
5.2954	8.4496
5.2900	8.5976
5.2846	8.7745
5.2792	8.9822
5.2738	9.2195
5.2684	9.4845
5.2631	9.7765
5.2578	10.096
5.2524	10.444
5.2471	10.821
5.2418	11.225
5.2365	11.644
5.2312	12.062
5.2260	12.460
5.2207	12.817
5.2154	13.118
5.2102	13.352
5.2050	13.517
5.1998	13.616
5.1945	13.659
5.1893	13.660
5.1842	13.634
5.1790	13.598
5.1738	13.562
5.1686	13.533
5.1635	13.515
5.1584	13.506
5.1532	13.509
5.1481	13.525
5.1430	13.561
5.1379	13.621
5.1328	13.708
5.1277	13.822
5.1227	13.956
5.1176	14.100
5.1126	14.238
5.1075	14.354
5.1025	14.435
5.0975	14.473
5.0925	14.471
5.0875	14.442
5.0825	14.405
5.0775	14.377
5.0726	14.374
5.0676	14.402
5.0627	14.462
5.0577	14.546
5.0528	14.642
5.0479	14.741
5.0430	14.833
5.0380	14.911
5.0332	14.977
5.0283	15.033
5.0234	15.088
5.0185	15.151
5.0137	15.229
5.0088	15.332
5.0040	15.465
4.9992	15.640
4.9944	15.866
4.9896	16.158
4.9848	16.530
4.9800	16.989
4.9752	17.528
4.9704	18.130
4.9657	18.761
4.9609	19.382
4.9562	19.956
4.9514	20.459
4.9467	20.883
4.9420	21.242
4.9373	21.567
4.9326	21.901
4.9279	22.291
4.9232	22.778
4.9186	23.393
4.9139	24.147
4.9092	25.029
4.9046	26.015
4.9000	27.062
4.8953	28.126
4.8907	29.163
4.8861	30.142
4.8815	31.041
4.8769	31.854
4.8723	32.582
4.8678	33.234
4.8632	33.821
4.8586	34.353
4.8541	34.839
4.8495	35.289
4.8450	35.708
4.8405	36.107
4.8360	36.490
4.8315	36.865
4.8270	37.234
4.8225	37.599
4.8180	37.959
4.8135	38.312
4.8090	38.655
4.8046	38.985
4.8001	39.301
4.7957	39.603
4.7913	39.889
4.7868	40.161
4.7824	40.418
4.7780	40.658
4.7736	40.882
4.7692	41.086
4.7648	41.269
4.7605	41.430
4.7561	41.569
4.7517	41.686
4.7474	41.784
4.7431	41.864
4.7387	41.927
4.7344	41.974
4.7301	42.003
4.7258	42.011
4.7215	41.992
4.7172	41.936
4.7129	41.833
4.7086	41.679
4.7043	41.473
4.7000	41.228
4.6958	40.970
4.6915	40.735
4.6873	40.561
4.6831	40.479
4.6788	40.508
4.6746	40.647
4.6704	40.880
4.6662	41.183
4.6620	41.533
4.6578	41.910
4.6536	42.305
4.6495	42.713
4.6453	43.131
4.6411	43.555
4.6370	43.978
4.6328	44.395
4.6287	44.797
4.6246	45.182
4.6205	45.546
4.6163	45.890
4.6122	46.211
4.6081	46.510
4.6040	46.784
4.6000	47.034
4.5959	47.258
4.5918	47.460
4.5877	47.640
4.5837	47.800
4.5796	47.941
4.5756	48.064
4.5716	48.168
4.5675	48.251
4.5635	48.310
4.5595	48.338
4.5555	48.330
4.5515	48.280
4.5475	48.184
4.5435	48.040
4.5395	47.849
4.5356	47.612
4.5316	47.331
4.5276	47.005
4.5237	46.636
4.5197	46.228
4.5158	45.792
4.5119	45.343
4.5080	44.904
4.5040	44.500
4.5001	44.149
4.4962	43.861
4.4923	43.639
4.4884	43.472
4.4846	43.351
4.4807	43.266
4.4768	43.219
4.4730	43.218
4.4691	43.274
4.4652	43.397
4.4614	43.586
4.4576	43.826
4.4537	44.094
4.4499	44.362
4.4461	44.609
4.4423	44.825
4.4385	45.015
4.4347	45.193
4.4309	45.371
4.4271	45.560
4.4233	45.764
4.4196	45.981
4.4158	46.205
4.4120	46.434
4.4083	46.669
4.4045	46.910
4.4008	47.161
4.3971	47.423
4.3934	47.695
4.3896	47.974
4.3859	48.254
4.3822	48.532
4.3785	48.804
4.3748	49.067
4.3711	49.320
4.3674	49.562
4.3638	49.792
4.3601	50.009
4.3564	50.214
4.3528	50.407
4.3491	50.589
4.3455	50.756
4.3418	50.908
4.3382	51.042
4.3346	51.155
4.3310	51.247
4.3273	51.317
4.3237	51.367
4.3201	51.399
4.3165	51.414
4.3129	51.414
4.3094	51.399
4.3058	51.371
4.3022	51.331
4.2986	51.286
4.2951	51.238
4.2915	51.190
4.2880	51.143
4.2844	51.097
4.2809	51.056
4.2774	51.027
4.2738	51.023
4.2703	51.053
4.2668	51.126
4.2633	51.238
4.2598	51.379
4.2563	51.532
4.2528	51.678
4.2493	51.805
4.2458	51.908
4.2424	51.991
4.2389	52.059
4.2354	52.121
4.2320	52.184
4.2285	52.248
4.2251	52.312
4.2216	52.369
4.2182	52.417
4.2148	52.451
4.2113	52.474
4.2079	52.488
4.2045	52.501
4.2011	52.521
4.1977	52.552
4.1943	52.597
4.1909	52.655
4.1875	52.722
4.1841	52.796
4.1808	52.871
4.1774	52.946
4.1740	53.020
4.1707	53.091
4.1673	53.160
4.1640	53.226
4.1606	53.289
4.1573	53.350
4.1540	53.409
4.1506	53.467
4.1473	53.527
4.1440	53.590
4.1407	53.656
4.1374	53.725
4.1341	53.798
4.1308	53.872
4.1275	53.944
4.1242	54.014
4.1209	54.083
4.1177	54.150
4.1144	54.215
4.1111	54.279
4.1079	54.342
4.1046	54.403
4.1014	54.462
4.0981	54.520
4.0949	54.576
4.0917	54.632
4.0884	54.687
4.0852	54.743
4.0820	54.798
4.0788	54.850
4.0756	54.896
4.0724	54.935
4.0692	54.967
4.0660	54.993
4.0628	55.012
4.0596	55.028
4.0565	55.040
4.0533	55.048
4.0501	55.053
4.0470	55.053
4.0438	55.048
4.0406	55.038
4.0375	55.025
4.0344	55.008
4.0312	54.992
4.0281	54.976
4.0250	54.964
4.0218	54.954
4.0187	54.945
4.0156	54.937
4.0125	54.927
4.0094	54.914
4.0063	54.898
4.0032	54.881
4.0001	54.864
3.9970	54.849
3.9940	54.839
3.9909	54.833
3.9878	54.834
3.9847	54.839
3.9817	54.850
3.9786	54.865
3.9756	54.886
3.9725	54.913
3.9695	54.947
3.9665	54.986
3.9634	55.028
3.9604	55.071
3.9574	55.113
3.9544	55.154
3.9513	55.193
3.9483	55.226
3.9453	55.253
3.9423	55.273
3.9393	55.285
3.9363	55.290
3.9333	55.291
3.9304	55.289
3.9274	55.287
3.9244	55.282
3.9214	55.273
3.9185	55.259
3.9155	55.237
3.9126	55.209
3.9096	55.175
3.9067	55.139
3.9037	55.101
3.9008	55.062
3.8979	55.019
3.8949	54.973
3.8920	54.922
3.8891	54.868
3.8862	54.811
3.8833	54.755
3.8804	54.702
3.8775	54.651
3.8746	54.603
3.8717	54.558
3.8688	54.512
3.8659	54.464
3.8630	54.416
3.8601	54.367
3.8573	54.319
3.8544	54.274
3.8515	54.234
3.8487	54.199
3.8458	54.167
3.8430	54.137
3.8401	54.107
3.8373	54.074
3.8344	54.037
3.8316	53.999
3.8288	53.959
3.8259	53.921
3.8231	53.883
3.8203	53.848
3.8175	53.816
3.8147	53.784
3.8119	53.751
3.8091	53.717
3.8063	53.677
3.8035	53.630
3.8007	53.575
3.7979	53.512
3.7951	53.444
3.7924	53.372
3.7896	53.298
3.7868	53.220
3.7841	53.138
3.7813	53.054
3.7785	52.969
3.7758	52.884
3.7730	52.800
3.7703	52.717
3.7676	52.635
3.7648	52.549
3.7621	52.455
3.7594	52.347
3.7566	52.220
3.7539	52.071
3.7512	51.903
3.7485	51.732
3.7458	51.579
3.7431	51.460
3.7404	51.383
3.7377	51.344
3.7350	51.328
3.7323	51.312
3.7296	51.276
3.7269	51.211
3.7242	51.112
3.7216	50.978
3.7189	50.810
3.7162	50.611
3.7136	50.387
3.7109	50.151
3.7083	49.918
3.7056	49.705
3.7030	49.526
3.7003	49.387
3.6977	49.291
3.6950	49.238
3.6924	49.229
3.6898	49.265
3.6872	49.344
3.6845	49.458
3.6819	49.597
3.6793	49.742
3.6767	49.877
3.6741	49.985
3.6715	50.060
3.6689	50.100
3.6663	50.110
3.6637	50.097
3.6611	50.068
3.6585	50.031
3.6560	49.988
3.6534	49.941
3.6508	49.892
3.6482	49.838
3.6457	49.781
3.6431	49.718
3.6406	49.651
3.6380	49.580
3.6355	49.504
3.6329	49.422
3.6304	49.334
3.6278	49.240
3.6253	49.142
3.6227	49.042
3.6202	48.940
3.6177	48.839
3.6152	48.738
3.6127	48.640
3.6101	48.543
3.6076	48.449
3.6051	48.358
3.6026	48.268
3.6001	48.178
3.5976	48.090
3.5951	48.004
3.5926	47.921
3.5901	47.844
3.5876	47.772
3.5852	47.706
3.5827	47.644
3.5802	47.583
3.5777	47.522
3.5753	47.459
3.5728	47.393
3.5704	47.324
3.5679	47.249
3.5654	47.168
3.5630	47.081
3.5605	46.988
3.5581	46.886
3.5557	46.775
3.5532	46.651
3.5508	46.511
3.5484	46.352
3.5459	46.173
3.5435	45.974
3.5411	45.753
3.5387	45.511
3.5363	45.251
3.5338	44.977
3.5314	44.692
3.5290	44.400
3.5266	44.103
3.5242	43.803
3.5218	43.503
3.5195	43.208
3.5171	42.932
3.5147	42.693
3.5123	42.510
3.5099	42.399
3.5075	42.369
3.5052	42.419
3.5028	42.537
3.5004	42.702
3.4981	42.892
3.4957	43.083
3.4934	43.255
3.4910	43.396
3.4887	43.503
3.4863	43.575
3.4840	43.617
3.4816	43.633
3.4793	43.627
3.4770	43.598
3.4746	43.544
3.4723	43.462
3.4700	43.352
3.4677	43.215
3.4653	43.056
3.4630	42.882
3.4607	42.700
3.4584	42.514
3.4561	42.328
3.4538	42.142
3.4515	41.954
3.4492	41.763
3.4469	41.572
3.4446	41.393
3.4423	41.233
3.4400	41.107
3.4378	41.023
3.4355	40.984
3.4332	40.981
3.4309	41.000
3.4287	41.024
3.4264	41.037
3.4241	41.024
3.4219	40.983
3.4196	40.914
3.4174	40.823
3.4151	40.719
3.4129	40.610
3.4106	40.502
3.4084	40.400
3.4061	40.304
3.4039	40.211
3.4017	40.120
3.3994	40.028
3.3972	39.931
3.3950	39.830
3.3928	39.724
3.3906	39.614
3.3883	39.500
3.3861	39.382
3.3839	39.261
3.3817	39.138
3.3795	39.013
3.3773	38.886
3.3751	38.758
3.3729	38.630
3.3707	38.502
3.3685	38.377
3.3663	38.261
3.3641	38.157
3.3620	38.071
3.3598	38.004
3.3576	37.954
3.3554	37.918
3.3533	37.891
3.3511	37.868
3.3489	37.846
3.3468	37.822
3.3446	37.793
3.3425	37.757
3.3403	37.712
3.3382	37.658
3.3360	37.592
3.3339	37.515
3.3317	37.427
3.3296	37.330
3.3274	37.225
3.3253	37.114
3.3232	37.000
3.3210	36.884
3.3189	36.765
3.3168	36.642
3.3147	36.514
3.3126	36.381
3.3104	36.243
3.3083	36.101
3.3062	35.957
3.3041	35.811
3.3020	35.662
3.2999	35.511
3.2978	35.360
3.2957	35.211
3.2936	35.065
3.2915	34.923
3.2894	34.783
3.2874	34.643
3.2853	34.500
3.2832	34.354
3.2811	34.206
3.2790	34.058
3.2770	33.913
3.2749	33.771
3.2728	33.633
3.2708	33.496
3.2687	33.360
3.2666	33.222
3.2646	33.082
3.2625	32.940
3.2605	32.798
3.2584	32.657
3.2564	32.518
3.2543	32.381
3.2523	32.245
3.2503	32.109
3.2482	31.974
3.2462	31.838
3.2442	31.701
3.2421	31.563
3.2401	31.423
3.2381	31.281
3.2361	31.136
3.2340	30.990
3.2320	30.843
3.2300	30.699
3.2280	30.558
3.2260	30.421
3.2240	30.287
3.2220	30.153
3.2200	30.017
3.2180	29.881
3.2160	29.742
3.2140	29.604
3.2120	29.468
3.2100	29.336
3.2080	29.208
3.2060	29.084
3.2040	28.965
3.2021	28.849
3.2001	28.733
3.1981	28.616
3.1961	28.499
3.1942	28.383
3.1922	28.268
3.1902	28.157
3.1883	28.051
3.1863	27.951
3.1844	27.855
3.1824	27.764
3.1805	27.675
3.1785	27.589
3.1766	27.504
3.1746	27.423
3.1727	27.346
3.1707	27.275
3.1688	27.211
3.1669	27.150
3.1649	27.091
3.1630	27.029
3.1611	26.962
3.1591	26.887
3.1572	26.808
3.1553	26.728
3.1534	26.650
3.1515	26.576
3.1495	26.507
3.1476	26.439
3.1457	26.372
3.1438	26.306
3.1419	26.239
3.1400	26.172
3.1381	26.105
3.1362	26.039
3.1343	25.972
3.1324	25.905
3.1305	25.839
3.1286	25.775
3.1268	25.715
3.1249	25.657
3.1230	25.601
3.1211	25.546
3.1192	25.490
3.1174	25.432
3.1155	25.374
3.1136	25.315
3.1117	25.254
3.1099	25.191
3.1080	25.126
3.1061	25.060
3.1043	24.994
3.1024	24.930
3.1006	24.871
3.0987	24.818
3.0969	24.770
3.0950	24.727
3.0932	24.686
3.0913	24.645
3.0895	24.604
3.0876	24.566
3.0858	24.530
3.0840	24.497
3.0821	24.463
3.0803	24.424
3.0785	24.380
3.0766	24.329
3.0748	24.275
3.0730	24.223
3.0712	24.175
3.0694	24.132
3.0675	24.093
3.0657	24.055
3.0639	24.017
3.0621	23.977
3.0603	23.937
3.0585	23.897
3.0567	23.857
3.0549	23.817
3.0531	23.777
3.0513	23.738
3.0495	23.700
3.0477	23.665
3.0459	23.632
3.0441	23.602
3.0423	23.574
3.0406	23.545
3.0388	23.517
3.0370	23.488
3.0352	23.460
3.0334	23.433
3.0317	23.406
3.0299	23.378
3.0281	23.348
3.0264	23.316
3.0246	23.282
3.0228	23.247
3.0211	23.213
3.0193	23.182
3.0176	23.154
3.0158	23.129
3.0140	23.104
3.0123	23.078
3.0105	23.049
3.0088	23.017
3.0070	22.980
3.0053	22.941
3.0036	22.898
3.0018	22.852
3.0001	22.800
2.9984	22.743
2.9966	22.682
2.9949	22.620
2.9932	22.559
2.9914	22.502
2.9897	22.448
2.9880	22.394
2.9863	22.339
2.9845	22.282
2.9828	22.225
2.9811	22.169
2.9794	22.115
2.9777	22.064
2.9760	22.011
2.9743	21.954
2.9726	21.890
2.9709	21.821
2.9692	21.745
2.9675	21.666
2.9658	21.585
2.9641	21.506
2.9624	21.431
2.9607	21.363
2.9590	21.303
2.9573	21.251
2.9556	21.203
2.9539	21.156
2.9523	21.110
2.9506	21.063
2.9489	21.016
2.9472	20.969
2.9455	20.922
2.9439	20.875
2.9422	20.826
2.9405	20.776
2.9389	20.723
2.9372	20.667
2.9355	20.607
2.9339	20.542
2.9322	20.470
2.9306	20.395
2.9289	20.319
2.9272	20.247
2.9256	20.184
2.9239	20.131
2.9223	20.090
2.9207	20.057
2.9190	20.027
2.9174	19.996
2.9157	19.959
2.9141	19.911
2.9124	19.852
2.9108	19.783
2.9092	19.705
2.9075	19.621
2.9059	19.534
2.9043	19.445
2.9027	19.356
2.9010	19.266
2.8994	19.176
2.8978	19.088
2.8962	19.007
2.8946	18.937
2.8929	18.880
2.8913	18.835
2.8897	18.800
2.8881	18.769
2.8865	18.739
2.8849	18.707
2.8833	18.673
2.8817	18.638
2.8801	18.604
2.8785	18.569
2.8769	18.533
2.8753	18.494
2.8737	18.449
2.8721	18.398
2.8705	18.342
2.8689	18.281
2.8673	18.216
2.8658	18.145
2.8642	18.068
2.8626	17.986
2.8610	17.897
2.8594	17.804
2.8579	17.709
2.8563	17.615
2.8547	17.527
2.8531	17.449
2.8516	17.383
2.8500	17.329
2.8484	17.284
2.8469	17.245
2.8453	17.209
2.8437	17.173
2.8422	17.134
2.8406	17.091
2.8391	17.042
2.8375	16.985
2.8360	16.919
2.8344	16.845
2.8329	16.766
2.8313	16.682
2.8298	16.595
2.8282	16.499
2.8267	16.387
2.8252	16.253
2.8236	16.096
2.8221	15.922
2.8205	15.742
2.8190	15.568
2.8175	15.411
2.8159	15.274
2.8144	15.150
2.8129	15.024
2.8114	14.883
2.8098	14.712
2.8083	14.502
2.8068	14.259
2.8053	13.997
2.8038	13.730
2.8022	13.470
2.8007	13.220
2.7992	12.976
2.7977	12.725
2.7962	12.454
2.7947	12.164
2.7932	11.859
2.7917	11.547
2.7902	11.226
2.7887	10.888
2.7872	10.513
2.7857	10.083
2.7842	9.5989
2.7827	9.0859
2.7812	8.5874
2.7797	8.1443
2.7782	7.7775
2.7767	7.4741
2.7752	7.1885
2.7738	6.8575
2.7723	6.4232
2.7708	5.8522
2.7693	5.1465
2.7678	4.3444
2.7664	3.5179
2.7649	2.7603
2.7634	2.1671
2.7619	1.8119
2.7605	1.7276
2.7590	1.8969
2.7575	2.2583
2.7561	2.7220
2.7546	3.1963
2.7531	3.6050
2.7517	3.8975
2.7502	4.0481
2.7488	4.0514
2.7473	3.9179
2.7458	3.6704
2.7444	3.3443
2.7429	2.9839
2.7415	2.6369
2.7400	2.3485
2.7386	2.1527
2.7371	2.0638
2.7357	2.0728
2.7343	2.1496
2.7328	2.2524
2.7314	2.3400
2.7299	2.3840
2.7285	2.3805
2.7271	2.3504
2.7256	2.3279
2.7242	2.3428
2.7228	2.4096
2.7213	2.5190
2.7199	2.6391
2.7185	2.7302
2.7171	2.7599
2.7156	2.7132
2.7142	2.5948
2.7128	2.4262
2.7114	2.2370
2.7100	2.0558
2.7085	1.9073
2.7071	1.8121
2.7057	1.7875
2.7043	1.8469
2.7029	2.0016
2.7015	2.2578
2.7001	2.6182
2.6987	3.0829
2.6973	3.6531
2.6959	4.3344
2.6945	5.1309
2.6931	6.0433
2.6917	7.0649
2.6903	8.1780
2.6889	9.3533
2.6875	10.554
2.6861	11.743
2.6847	12.892
2.6833	13.982
2.6819	15.011
2.6805	15.984
2.6791	16.914
2.6778	17.812
2.6764	18.679
2.6750	19.500
2.6736	20.267
2.6722	20.982
2.6709	21.657
2.6695	22.311
2.6681	22.976
2.6667	23.678
2.6654	24.420
2.6640	25.182
2.6626	25.937
2.6613	26.659
2.6599	27.319
2.6585	27.902
2.6572	28.415
2.6558	28.873
2.6545	29.295
2.6531	29.692
2.6517	30.072
2.6504	30.436
2.6490	30.780
2.6477	31.104
2.6463	31.414
2.6450	31.722
2.6436	32.039
2.6423	32.371
2.6409	32.710
2.6396	33.042
2.6382	33.346
2.6369	33.609
2.6356	33.820
2.6342	33.984
2.6329	34.131
2.6315	34.293
2.6302	34.489
2.6289	34.731
2.6275	35.006
2.6262	35.280
2.6249	35.506
2.6236	35.657
2.6222	35.744
2.6209	35.790
2.6196	35.831
2.6183	35.912
2.6169	36.052
2.6156	36.236
2.6143	36.422
2.6130	36.572
2.6117	36.661
2.6103	36.674
2.6090	36.629
2.6077	36.582
2.6064	36.591
2.6051	36.682
2.6038	36.845
2.6025	37.033
2.6012	37.179
2.5999	37.217
2.5986	37.130
2.5973	36.978
2.5960	36.854
2.5947	36.837
2.5934	36.954
2.5921	37.179
2.5908	37.438
2.5895	37.647
2.5882	37.754
2.5869	37.773
2.5856	37.758
2.5843	37.755
2.5830	37.791
2.5817	37.864
2.5805	37.953
2.5792	38.025
2.5779	38.057
2.5766	38.057
2.5753	38.054
2.5741	38.073
2.5728	38.134
2.5715	38.238
2.5702	38.372
2.5690	38.508
2.5677	38.615
2.5664	38.681
2.5651	38.722
2.5639	38.765
2.5626	38.840
2.5613	38.964
2.5601	39.131
2.5588	39.309
2.5575	39.459
2.5563	39.552
2.5550	39.582
2.5538	39.563
2.5525	39.522
2.5513	39.482
2.5500	39.460
2.5487	39.460
2.5475	39.476
2.5462	39.506
2.5450	39.551
2.5437	39.616
2.5425	39.702
2.5413	39.805
2.5400	39.915
2.5388	40.022
2.5375	40.114
2.5363	40.183
2.5350	40.234
2.5338	40.271
2.5326	40.304
2.5313	40.341
2.5301	40.388
2.5289	40.446
2.5276	40.514
2.5264	40.585
2.5252	40.657
2.5239	40.725
2.5227	40.787
2.5215	40.842
2.5202	40.890
2.5190	40.933
2.5178	40.972
2.5166	41.006
2.5154	41.040
2.5141	41.074
2.5129	41.112
2.5117	41.155
2.5105	41.207
2.5093	41.268
2.5081	41.337
2.5068	41.411
2.5056	41.485
2.5044	41.552
2.5032	41.606
2.5020	41.644
2.5008	41.668
2.4996	41.681
2.4984	41.689
2.4972	41.698
2.4960	41.711
2.4948	41.725
2.4936	41.740
2.4924	41.756
2.4912	41.774
2.4900	41.803
2.4888	41.852
2.4876	41.929
2.4864	42.039
2.4852	42.180
2.4840	42.346
2.4828	42.526
2.4816	42.708
2.4805	42.882
2.4793	43.039
2.4781	43.174
2.4769	43.284
2.4757	43.372
2.4745	43.444
2.4734	43.507
2.4722	43.567
2.4710	43.624
2.4698	43.678
2.4686	43.728
2.4675	43.769
2.4663	43.801
2.4651	43.824
2.4640	43.840
2.4628	43.853
2.4616	43.865
2.4604	43.881
2.4593	43.903
2.4581	43.934
2.4569	43.975
2.4558	44.026
2.4546	44.084
2.4535	44.146
2.4523	44.210
2.4511	44.274
2.4500	44.337
2.4488	44.402
2.4477	44.470
2.4465	44.543
2.4454	44.623
2.4442	44.711
2.4431	44.805
2.4419	44.907
2.4408	45.021
2.4396	45.152
2.4385	45.303
2.4373	45.479
2.4362	45.680
2.4350	45.898
2.4339	46.122
2.4327	46.340
2.4316	46.540
2.4305	46.715
2.4293	46.863
2.4282	46.991
2.4270	47.105
2.4259	47.214
2.4248	47.321
2.4236	47.429
2.4225	47.534
2.4214	47.633
2.4202	47.722
2.4191	47.803
2.4180	47.877
2.4169	47.948
2.4157	48.017
2.4146	48.085
2.4135	48.150
2.4124	48.207
2.4112	48.255
2.4101	48.291
2.4090	48.319
2.4079	48.340
2.4068	48.356
2.4056	48.366
2.4045	48.367
2.4034	48.350
2.4023	48.310
2.4012	48.241
2.4001	48.144
2.3990	48.022
2.3979	47.883
2.3967	47.737
2.3956	47.591
2.3945	47.451
2.3934	47.317
2.3923	47.185
2.3912	47.051
2.3901	46.914
2.3890	46.773
2.3879	46.638
2.3868	46.519
2.3857	46.429
2.3846	46.380
2.3835	46.376
2.3824	46.419
2.3813	46.503
2.3802	46.620
2.3791	46.761
2.3781	46.917
2.3770	47.084
2.3759	47.258
2.3748	47.439
2.3737	47.621
2.3726	47.801
2.3715	47.968
2.3704	48.113
2.3694	48.227
2.3683	48.305
2.3672	48.347
2.3661	48.358
2.3650	48.340
2.3640	48.301
2.3629	48.245
2.3618	48.181
2.3607	48.118
2.3597	48.065
2.3586	48.033
2.3575	48.029
2.3564	48.057
2.3554	48.115
2.3543	48.201
2.3532	48.307
2.3522	48.425
2.3511	48.549
2.3500	48.674
2.3490	48.796
2.3479	48.917
2.3468	49.040
2.3458	49.166
2.3447	49.296
2.3436	49.422
2.3426	49.538
2.3415	49.635
2.3405	49.707
2.3394	49.751
2.3384	49.771
2.3373	49.768
2.3363	49.747
2.3352	49.711
2.3342	49.662
2.3331	49.602
2.3321	49.533
2.3310	49.462
2.3300	49.397
2.3289	49.345
2.3279	49.311
2.3268	49.297
2.3258	49.301
2.3247	49.317
2.3237	49.338
2.3226	49.361
2.3216	49.384
2.3206	49.405
2.3195	49.425
2.3185	49.445
2.3175	49.467
2.3164	49.492
2.3154	49.523
2.3144	49.567
2.3133	49.626
2.3123	49.704
2.3113	49.800
2.3102	49.913
2.3092	50.037
2.3082	50.168
2.3071	50.301
2.3061	50.430
2.3051	50.549
2.3041	50.659
2.3030	50.758
2.3020	50.846
2.3010	50.926
2.3000	51.000
2.2990	51.069
2.2979	51.131
2.2969	51.188
2.2959	51.239
2.2949	51.288
2.2939	51.336
2.2929	51.384
2.2918	51.431
2.2908	51.476
2.2898	51.522
2.2888	51.568
2.2878	51.617
2.2868	51.671
2.2858	51.728
2.2848	51.787
2.2838	51.844
2.2828	51.901
2.2818	51.959
2.2808	52.022
2.2798	52.090
2.2787	52.161
2.2777	52.235
2.2767	52.309
2.2757	52.380
2.2747	52.450
2.2738	52.520
2.2728	52.590
2.2718	52.657
2.2708	52.717
2.2698	52.769
2.2688	52.814
2.2678	52.854
2.2668	52.891
2.2658	52.928
2.2648	52.963
2.2638	52.992
2.2628	53.013
2.2618	53.026
2.2609	53.035
2.2599	53.047
2.2589	53.065
2.2579	53.091
2.2569	53.122
2.2559	53.154
2.2550	53.182
2.2540	53.200
2.2530	53.208
2.2520	53.206
2.2510	53.198
2.2501	53.185
2.2491	53.172
2.2481	53.160
2.2471	53.146
2.2462	53.130
2.2452	53.107
2.2442	53.074
2.2433	53.031
2.2423	52.983
2.2413	52.940
2.2403	52.911
2.2394	52.903
2.2384	52.918
2.2374	52.950
2.2365	52.990
2.2355	53.028
2.2345	53.061
2.2336	53.082
2.2326	53.092
2.2317	53.088
2.2307	53.065
2.2297	53.020
2.2288	52.950
2.2278	52.855
2.2269	52.740
2.2259	52.607
2.2250	52.459
2.2240	52.293
2.2231	52.105
2.2221	51.884
2.2211	51.620
2.2202	51.304
2.2192	50.924
2.2183	50.461
2.2173	49.882
2.2164	49.141
2.2155	48.182
2.2145	46.963
2.2136	45.487
2.2126	43.833
2.2117	42.160
2.2107	40.685
2.2098	39.629
2.2088	39.150
2.2079	39.297
2.2070	39.993
2.2060	41.069
2.2051	42.311
2.2041	43.528
2.2032	44.586
2.2023	45.424
2.2013	46.040
2.2004	46.464
2.1995	46.741
2.1985	46.913
2.1976	47.018
2.1967	47.084
2.1957	47.131
2.1948	47.179
2.1939	47.242
2.1930	47.327
2.1920	47.440
2.1911	47.583
2.1902	47.755
2.1893	47.945
2.1883	48.139
2.1874	48.322
2.1865	48.483
2.1856	48.613
2.1846	48.709
2.1837	48.776
2.1828	48.819
2.1819	48.840
2.1810	48.840
2.1800	48.822
2.1791	48.789
2.1782	48.746
2.1773	48.695
2.1764	48.642
2.1755	48.588
2.1746	48.530
2.1736	48.466
2.1727	48.396
2.1718	48.323
2.1709	48.246
2.1700	48.169
2.1691	48.094
2.1682	48.021
2.1673	47.948
2.1664	47.873
2.1655	47.801
2.1646	47.736
2.1637	47.688
2.1628	47.667
2.1619	47.684
2.1610	47.743
2.1601	47.842
2.1592	47.977
2.1583	48.142
2.1574	48.329
2.1565	48.531
2.1556	48.746
2.1547	48.976
2.1538	49.221
2.1529	49.484
2.1520	49.770
2.1511	50.081
2.1502	50.415
2.1493	50.768
2.1484	51.130
2.1475	51.491
2.1466	51.840
2.1458	52.168
2.1449	52.469
2.1440	52.740
2.1431	52.984
2.1422	53.204
2.1413	53.405
2.1404	53.588
2.1396	53.756
2.1387	53.910
2.1378	54.047
2.1369	54.167
2.1360	54.272
2.1352	54.367
2.1343	54.453
2.1334	54.535
2.1325	54.615
2.1316	54.690
2.1308	54.760
2.1299	54.821
2.1290	54.868
2.1281	54.902
2.1273	54.925
2.1264	54.942
2.1255	54.961
2.1247	54.985
2.1238	55.014
2.1229	55.047
2.1220	55.076
2.1212	55.096
2.1203	55.107
2.1194	55.112
2.1186	55.114
2.1177	55.115
2.1168	55.116
2.1160	55.115
2.1151	55.109
2.1143	55.103
2.1134	55.101
2.1125	55.115
2.1117	55.154
2.1108	55.224
2.1100	55.320
2.1091	55.433
2.1082	55.548
2.1074	55.652
2.1065	55.731
2.1057	55.782
2.1048	55.809
2.1040	55.819
2.1031	55.819
2.1023	55.820
2.1014	55.826
2.1005	55.840
2.0997	55.859
2.0988	55.878
2.0980	55.892
2.0971	55.896
2.0963	55.892
2.0955	55.884
2.0946	55.878
2.0938	55.879
2.0929	55.888
2.0921	55.903
2.0912	55.917
2.0904	55.926
2.0895	55.929
2.0887	55.927
2.0879	55.927
2.0870	55.935
2.0862	55.962
2.0853	56.008
2.0845	56.066
2.0837	56.141
2.0828	56.199
2.0820	56.245
2.0812	56.277
2.0803	56.187
2.0795	56.157
2.0760	56.157
2.0720	56.785
2.0680	56.941
2.0640	56.878
2.0600	56.517
2.0560	57.198
2.0520	57.291
2.0480	57.176
2.0440	56.990
2.0400	56.825
2.0360	56.681
2.0320	56.405
2.0280	56.110
2.0240	56.274
2.0200	56.610
2.0160	56.243
2.0120	56.426
2.0080	56.265
2.0040	55.891
2.0000	55.568
1.9960	55.444
1.9920	55.502
1.9880	55.510
1.9840	55.460
1.9800	55.165
1.9760	54.721
1.9720	54.582
1.9680	54.533
1.9640	54.311
1.9600	54.076
1.9560	53.980
1.9520	54.323
1.9480	54.232
1.9440	53.912
1.9400	53.731
1.9360	53.326
1.9320	53.200
1.9280	53.304
1.9240	53.230
1.9200	52.865
1.9160	53.419
1.9120	53.550
1.9080	53.979
1.9040	54.250
1.9000	54.747
1.8960	55.300
1.8920	55.177
1.8880	54.887
1.8840	54.625
1.8800	54.203
1.8760	53.853
1.8720	53.455
1.8680	53.559
1.8640	54.811
1.8600	56.073
1.8560	56.648
1.8520	56.181
1.8480	55.634
1.8440	55.226
1.8400	55.064
1.8360	55.089
1.8320	54.907
1.8280	55.371
1.8240	54.972
1.8200	54.539
1.8160	54.432
1.8120	53.926
1.8080	54.019
1.8040	54.207
1.8000	53.931
1.7960	53.843
1.7920	53.619
1.7880	53.476
1.7840	53.527
1.7800	53.708
1.7760	53.843
1.7720	53.848
1.7680	53.848
1.7640	53.619
1.7600	53.573
1.7560	53.615
1.7520	53.615
1.7480	53.212
1.7440	53.434
1.7400	53.666
1.7360	53.573
1.7320	53.666
1.7280	53.806
1.7240	53.853
1.7200	54.035
1.7160	54.041
1.7120	54.035
1.7080	53.843
1.7040	53.759
1.7000	53.619
1.6960	53.661
1.6920	53.619
1.6880	53.708
1.6840	53.718
1.6800	53.619
1.6760	53.397
1.6720	53.262
1.6680	53.170
1.6640	53.273
1.6600	53.416
1.6560	53.185
1.6520	53.231
1.6480	53.005
1.6440	53.005
1.6400	53.411
1.6360	53.319
1.6320	53.449
1.6280	53.728
1.6240	53.588
1.6200	53.185
1.6160	52.917
1.6120	52.832
1.6080	52.832
1.6040	52.832
1.6000	52.741
1.5960	52.653
1.5920	53.062
1.5880	53.331
1.5840	53.108
1.5800	53.239
1.5760	53.327
1.5720	53.277
1.5680	53.277
1.5640	53.411
1.5600	53.294
1.5560	53.181
1.5520	53.075
1.5480	53.277
1.5440	52.987
1.5400	52.805
1.5360	52.757
1.5320	52.890
1.5280	52.757
1.5240	52.576
1.5200	53.065
1.5160	53.294
1.5120	52.760
1.5080	52.316
1.5040	51.832
1.5000	52.100
1.4960	52.149
1.4920	52.863
1.4880	53.460
1.4840	52.648
1.4800	52.635
1.4760	52.723
1.4720	52.677
1.4680	52.587
1.4640	52.685
1.4600	52.762
1.4560	52.728
1.4520	52.550
1.4480	52.419
1.4440	52.152
1.4400	51.899
1.4360	51.812
1.4320	51.977
1.4280	52.166
1.4240	52.079
1.4200	51.683
1.4160	50.577
1.4120	48.918
1.4080	47.480
1.4040	47.246
1.4000	47.671
1.3960	48.438
1.3920	48.692
1.3880	48.731
1.3840	48.688
1.3800	49.366
1.3760	50.261
1.3720	51.841
1.3680	52.743
1.3640	52.371
1.3600	51.520
1.3560	51.697
1.3520	53.042
1.3480	53.638
1.3440	53.809
1.3400	53.248
1.3360	52.663
1.3320	52.221
1.3280	52.307
1.3240	52.616
1.3200	52.973
1.3160	53.238
1.3120	53.260
1.3080	53.212
1.3040	53.296
1.3000	53.206
1.2960	53.293
1.2920	53.341
1.2880	53.257
1.2840	53.169
1.2800	53.175
1.2760	53.138
1.2720	53.278
1.2680	53.415
1.2640	53.828
1.2600	53.978
1.2560	54.109
1.2520	54.123
1.2480	54.264
1.2440	54.264
1.2400	54.269
1.2360	54.183
1.2320	54.196
1.2280	54.157
1.2240	54.204
1.2200	54.162
1.2160	54.652
1.2120	54.434
1.2080	54.462
1.2040	54.452
1.2000	54.442
1.1960	54.410
1.1920	54.408
1.1880	54.404
1.1840	54.529
1.1800	54.524
1.1760	54.519
1.1720	54.515
1.1680	54.491
1.1640	54.224
1.1600	54.290
1.1560	53.963
1.1520	53.704
1.1480	54.149
1.1440	54.523
1.1400	54.895
1.1360	55.310
1.1320	54.994
1.1280	55.215
1.1240	55.130
1.1200	55.505
1.1160	55.469
1.1120	54.994
1.1080	55.392
1.1040	55.345
1.1000	55.392
1.0960	55.439
1.0920	55.630
1.0880	55.627
1.0840	55.491
1.0800	55.438
1.0760	55.758
1.0720	55.438
1.0680	55.805
1.0640	55.568
1.0600	55.613
1.0560	55.702
1.0520	55.692
1.0480	56.052
1.0440	55.784
1.0400	55.608
1.0360	55.879
1.0320	55.881
1.0280	55.780
1.0240	55.828
1.0200	55.708
1.0160	55.891
1.0120	56.421
1.0080	56.134
1.0040	55.856
1.0000	55.809
0.99600	56.134
0.99200	56.366
0.98800	56.182
0.98400	56.039
0.98000	55.796
0.97600	55.944
0.97200	55.991
0.96800	56.039
0.96400	55.903
0.96000	56.039
0.95600	56.222
0.95200	56.117
0.94800	55.974
0.94400	56.124
0.94000	56.117
0.93600	56.117
0.93200	56.205
0.92800	56.062
0.92400	56.143
0.92000	56.239
0.91600	56.374
0.91200	56.045
0.90800	56.214
0.90400	56.188
0.90000	56.147
0.89600	56.140
0.89200	56.099
0.88800	56.099
0.88400	56.303
0.88000	56.543
0.87600	56.318
0.87200	56.455
0.86800	56.608
0.86400	56.625
0.86000	56.753
0.85600	56.883
0.85200	57.030
0.84800	56.803
0.84400	56.972
0.84000	56.991
0.83600	57.259
0.83200	57.398
0.82800	57.487
0.82400	57.419
0.82000	57.488
0.81600	57.607
0.81200	57.784
0.80800	57.774
0.80400	57.607
0.80000	57.723
0.79900	57.723
0.79800	57.723
0.79700	57.892
0.79600	57.421
0.79500	57.241
0.79400	57.092
0.79300	57.140
0.79200	57.088
0.79100	56.992
0.79000	57.245
0.78900	57.145
0.78800	57.156
0.78700	57.153
0.78600	57.012
0.78500	57.302
0.78400	57.302
0.78300	57.258
0.78200	56.960
0.78100	57.141
0.78000	57.299
0.77900	57.449
0.77800	57.452
0.77700	57.250
0.77600	56.856
0.77500	56.837
0.77400	56.800
0.77300	56.863
0.77200	57.009
0.77100	57.206
0.77000	56.916
0.76900	56.816
0.76800	56.948
0.76700	57.299
0.76600	57.293
0.76500	56.912
0.76400	56.965
0.76300	56.816
0.76200	56.415
0.76100	56.452
0.76000	56.570
0.75900	56.674
0.75800	56.630
0.75700	56.585
0.75600	56.674
0.75500	56.429
0.75400	56.481
0.75300	56.533
0.75200	56.526
0.75100	56.184
0.75000	56.236
0.74900	56.042
0.74800	55.888
0.74700	56.624
0.74600	56.593
0.74500	56.616
0.74400	56.527
0.74300	56.133
0.74200	55.978
0.74100	56.490
0.74000	56.834
0.73900	56.133
0.73800	56.133
0.73700	56.184
0.73600	56.036
0.73500	55.649
0.73400	55.610
0.73300	55.849
0.73200	56.011
0.73100	56.004
0.73000	55.804
0.72900	56.056
0.72800	55.816
0.72700	55.804
0.72600	55.356
0.72500	55.901
0.72400	55.901
0.72300	55.303
0.72200	55.207
0.72100	55.268
0.72000	55.268
0.71900	55.074
0.71800	55.181
0.71700	55.227
0.71600	54.790
0.71500	54.936
0.71400	55.490
0.71300	55.439
0.71200	55.327
0.71100	54.632
0.71000	54.536
0.70900	54.239
0.70800	54.090
0.70700	54.641
0.70600	54.984
0.70500	55.189
0.70400	55.482
0.70300	54.933
0.70200	54.405
0.70100	54.352
0.70000	54.301
0.69900	54.301
0.69800	55.429
0.69700	55.205
0.69600	55.130
0.69500	55.373
0.69400	54.565
0.69300	54.452
0.69200	54.452
0.69100	54.708
0.69000	54.656
0.68900	54.717
0.68800	54.460
0.68700	54.308
0.68600	54.508
0.68500	54.464
0.68400	54.360
0.68300	54.565
0.68200	54.521
0.68100	54.416
0.68000	54.160
0.67900	54.005
0.67800	53.606
0.67700	54.021
0.67600	53.917
0.67500	53.562
0.67400	53.513
0.67300	53.461
0.67200	53.506
0.67100	53.915
0.67000	53.963
0.66900	53.608
0.66800	54.123
0.66700	54.125
0.66600	53.920
0.66500	53.863
0.66400	53.159
0.66300	53.363
0.66200	53.771
0.66100	53.518
0.66000	53.363
0.65900	53.618
0.65800	53.976
0.65700	53.931
0.65600	53.624
0.65500	53.215
0.65400	53.624
0.65300	53.572
0.65200	53.625
0.65100	53.372
0.65000	53.218
0.64900	53.115
0.64800	53.014
0.64700	53.370
0.64600	53.320
0.64500	53.269
0.64400	53.215
0.64300	53.215
0.64200	53.015
0.64100	52.915
0.64000	53.219
0.63900	53.320
0.63800	53.015
0.63700	52.712
0.63600	52.762
0.63500	52.913
0.63400	53.065
0.63300	53.065
0.63200	52.813
0.63100	52.610
0.63000	52.917
0.62900	53.018
0.62800	52.815
0.62700	52.561
0.62600	52.561
0.62500	52.460
0.62400	52.510
0.62300	52.715
0.62200	52.816
0.62100	52.460
0.62000	52.511
0.61900	52.511
0.61800	52.562
0.61700	52.359
0.61600	52.308
0.61500	52.308
0.61400	52.510
0.61300	52.106
0.61200	52.055
0.61100	52.055
0.61000	52.156
0.60900	52.055
0.60800	52.055
0.60700	52.106
0.60600	52.207
0.60500	52.156
0.60400	51.851
0.60300	52.052
0.60200	52.053
0.60100	52.052
0.60000	51.592
0.59900	51.440
0.59800	51.641
0.59700	51.537
0.59600	51.534
0.59500	51.584
0.59400	51.275
0.59300	51.429
0.59200	51.431
0.59100	51.534
0.59000	51.177
0.58900	51.069
0.58800	51.119
0.58700	50.915
0.58600	50.915
0.58500	50.765
0.58400	50.915
0.58300	51.066
0.58200	50.765
0.58100	51.016
0.58000	50.812
0.57900	51.016
0.57800	50.709
0.57700	50.812
0.57600	50.915
0.57500	51.018
0.57400	50.762
0.57300	50.982
0.57200	50.486
0.57100	50.381
0.57000	50.174
0.56900	50.024
0.56800	49.874
0.56700	49.874
0.56600	49.821
0.56500	49.821
0.56400	49.821
0.56300	49.468
0.56200	49.367
0.56100	49.056
0.56000	49.097
0.55900	47.002
0.55800	47.752
0.55700	47.524
0.55600	47.357
0.55500	47.183
0.55400	46.796
0.55300	46.646
0.55200	46.524
0.55100	46.492
0.55000	46.849
0.54900	46.994
0.54800	46.796
0.54700	46.587
0.54600	46.752
0.54500	46.303
0.54400	46.064
0.54300	46.378
0.54200	46.125
0.54100	46.287
0.54000	45.884
0.53900	45.600
0.53800	45.673
0.53700	45.721
0.53600	45.846
0.53500	45.647
0.53400	45.279
0.53300	45.009
0.53200	44.839
0.53100	44.683
0.53000	44.611
0.52900	44.454
0.52800	44.198
0.52700	44.272
0.52600	43.850
0.52500	44.015
0.52400	44.024
0.52300	43.216
0.52200	42.978
0.52100	43.356
0.52000	43.560
0.51900	43.566
0.51800	42.803
0.51700	42.565
0.51600	42.367
0.51500	42.090
0.51400	41.837
0.51300	41.892
0.51200	41.732
0.51100	41.400
0.51000	41.832
0.50900	42.108
0.50800	41.600
0.50700	41.106
0.50600	40.585
0.50500	40.711
0.50400	40.626
0.50300	40.596
0.50200	40.609
0.50100	40.119
0.50000	39.761
0.49900	39.636
0.49800	39.490
0.49700	39.537
0.49600	39.097
0.49500	39.205
0.49400	38.987
0.49300	38.510
0.49200	38.755
0.49100	38.406
0.49000	38.512
0.48900	38.237
0.48800	38.104
0.48700	37.642
0.48600	37.579
0.48500	37.481
0.48400	37.283
0.48300	37.322
0.48200	37.563
0.48100	37.227
0.48000	37.125
0.47900	36.927
0.47800	36.472
0.47700	36.768
0.47600	36.835
0.47500	36.801
0.47400	36.570
0.47300	36.274
0.47200	36.274
0.47100	36.341
0.47000	36.177
0.46900	35.886
0.46800	35.984
0.46700	36.048
0.46600	35.984
0.46500	35.983
0.46400	35.887
0.46300	36.275
0.46200	35.755
0.46100	35.787
0.46000	35.626
0.45900	36.370
0.45800	36.604
0.45700	36.532
0.45600	36.427
0.45500	36.154
0.45400	36.189
0.45300	35.959
0.45200	35.616
0.45100	35.574
0.45000	35.940
0.44900	35.907
0.44800	35.702
0.44700	35.635
0.44600	35.251
0.44500	34.989
0.44400	34.575
0.44300	34.674
0.44200	35.070
0.44100	34.538
0.44000	34.248
0.43900	33.956
0.43800	33.933
0.43700	33.669
0.43600	33.026
0.43500	32.920
0.43400	32.772
0.43300	32.623
0.43200	31.940
0.43100	31.840
0.43000	31.582
0.42900	31.751
0.42800	31.111
0.42700	30.934
0.42600	30.672
0.42500	30.066
0.42400	29.933
0.42300	29.651
0.42200	29.314
0.42100	28.995
0.42000	29.282
0.41900	28.786
0.41800	28.604
0.41700	28.292
0.41600	28.500
0.41500	28.189
0.41400	28.000
0.41300	27.461
0.41200	27.859
0.41100	27.657
0.41000	27.209
0.40900	26.748
0.40800	26.836
0.40700	26.591
0.40600	26.488
0.40500	26.298
0.40400	26.107
0.40300	26.007
0.40200	26.094
0.40100	25.757
0.40000	25.633
0.0000	
