Name: Argillaceous Shale  
Type:  Rocks
Class:  Sedimentary
Subclass: Shale 
Particle Size:  0 - 75 Micrometers
Sample No.:  shale.7
Owner:  JHU
Wavelength Range:  All
Origin:  Sample No. 386,  The Hunt and Salisbury Collection at the U.S. 
Geological Survey, Denver, Co.
Description: Sample contains microcrystalline brownish clay, quartz, 
and some carbonate, with discontinuous and irregular bands of 
hematite(?). There are fine-grained angular to subangular quartz 
grains throughout the sample, with regions of more concentrated 
grains rimmed by the opaque phase.

Measurement:  Directional (10 Degree) Hemispherical Reflectance
First Column:  X
Second Column:  Y  
X Units:  Wavelength (micrometers)
Y Units:  Reflectance (percent)
First X Value: 14.9831
Last X Value:  0.4
Number of X Values: 2868
Additional Information:  None

14.983	1.7742
14.940	1.6996
14.897	1.6741
14.854	1.7250
14.812	1.8564
14.770	2.0406
14.728	2.2299
14.686	2.3762
14.645	2.4454
14.603	2.4181
14.562	2.2957
14.521	2.1055
14.481	1.8914
14.441	1.7003
14.400	1.5734
14.361	1.5381
14.321	1.5985
14.281	1.7335
14.242	1.9068
14.203	2.0828
14.164	2.2365
14.126	2.3584
14.087	2.4534
14.049	2.5358
14.011	2.6180
13.973	2.7035
13.936	2.7866
13.899	2.8584
13.861	2.9107
13.824	2.9431
13.788	2.9626
13.751	2.9808
13.715	3.0078
13.679	3.0492
13.643	3.1030
13.607	3.1629
13.571	3.2207
13.536	3.2714
13.500	3.3126
13.465	3.3450
13.430	3.3697
13.396	3.3872
13.361	3.3978
13.327	3.4011
13.293	3.3971
13.259	3.3877
13.225	3.3739
13.191	3.3566
13.158	3.3341
13.124	3.3022
13.091	3.2550
13.058	3.1864
13.026	3.0909
12.993	2.9685
12.960	2.8240
12.928	2.6680
12.896	2.5147
12.864	2.3793
12.832	2.2734
12.800	2.2024
12.769	2.1638
12.737	2.1482
12.706	2.1420
12.675	2.1313
12.644	2.1060
12.614	2.0610
12.583	1.9975
12.552	1.9232
12.522	1.8491
12.492	1.7884
12.462	1.7539
12.432	1.7562
12.402	1.8017
12.373	1.8914
12.343	2.0210
12.314	2.1808
12.285	2.3577
12.256	2.5387
12.227	2.7106
12.198	2.8645
12.169	2.9952
12.141	3.1006
12.113	3.1833
12.084	3.2482
12.056	3.3043
12.028	3.3614
12.000	3.4279
11.973	3.5091
11.945	3.6050
11.918	3.7114
11.890	3.8205
11.863	3.9262
11.836	4.0247
11.809	4.1180
11.782	4.2111
11.755	4.3105
11.729	4.4192
11.702	4.5364
11.676	4.6549
11.650	4.7617
11.624	4.8393
11.598	4.8689
11.572	4.8339
11.546	4.7252
11.520	4.5459
11.495	4.3162
11.469	4.0699
11.444	3.8492
11.419	3.6903
11.394	3.6157
11.369	3.6256
11.344	3.7014
11.319	3.8111
11.294	3.9210
11.270	4.0053
11.245	4.0496
11.221	4.0503
11.197	4.0107
11.173	3.9373
11.149	3.8376
11.125	3.7182
11.101	3.5847
11.077	3.4440
11.054	3.3031
11.030	3.1686
11.007	3.0471
10.983	2.9436
10.960	2.8619
10.937	2.8034
10.914	2.7665
10.891	2.7485
10.868	2.7459
10.846	2.7539
10.823	2.7684
10.800	2.7857
10.778	2.8030
10.755	2.8179
10.733	2.8292
10.711	2.8371
10.689	2.8420
10.667	2.8458
10.645	2.8494
10.623	2.8539
10.602	2.8593
10.580	2.8645
10.558	2.8683
10.537	2.8685
10.516	2.8636
10.494	2.8517
10.473	2.8323
10.452	2.8058
10.431	2.7724
10.410	2.7338
10.389	2.6916
10.368	2.6478
10.348	2.6031
10.327	2.5595
10.306	2.5183
10.286	2.4814
10.266	2.4496
10.245	2.4240
10.225	2.4039
10.205	2.3876
10.185	2.3715
10.165	2.3530
10.145	2.3310
10.125	2.3063
10.106	2.2820
10.086	2.2623
10.066	2.2500
10.047	2.2462
10.027	2.2493
10.008	2.2554
9.9887	2.2616
9.9695	2.2654
9.9504	2.2666
9.9313	2.2663
9.9123	2.2670
9.8934	2.2708
9.8746	2.2791
9.8558	2.2924
9.8371	2.3104
9.8185	2.3319
9.7999	2.3544
9.7814	2.3757
9.7630	2.3940
9.7447	2.4094
9.7264	2.4236
9.7082	2.4399
9.6900	2.4608
9.6719	2.4868
9.6539	2.5171
9.6360	2.5479
9.6181	2.5756
9.6003	2.5981
9.5825	2.6156
9.5649	2.6308
9.5472	2.6474
9.5297	2.6692
9.5122	2.6978
9.4948	2.7326
9.4774	2.7722
9.4601	2.8138
9.4429	2.8562
9.4257	2.8998
9.4086	2.9465
9.3916	2.9986
9.3746	3.0563
9.3577	3.1170
9.3408	3.1750
9.3240	3.2238
9.3073	3.2567
9.2906	3.2704
9.2740	3.2650
9.2574	3.2453
9.2409	3.2167
9.2245	3.1856
9.2081	3.1563
9.1918	3.1305
9.1755	3.1077
9.1593	3.0852
9.1431	3.0623
9.1270	3.0388
9.1110	3.0163
9.0950	2.9971
9.0791	2.9834
9.0632	2.9758
9.0474	2.9725
9.0316	2.9706
9.0159	2.9678
9.0003	2.9626
8.9847	2.9555
8.9691	2.9486
8.9536	2.9441
8.9382	2.9439
8.9228	2.9476
8.9075	2.9545
8.8922	2.9628
8.8770	2.9713
8.8618	2.9794
8.8467	2.9858
8.8316	2.9905
8.8166	2.9922
8.8016	2.9903
8.7867	2.9846
8.7718	2.9761
8.7570	2.9661
8.7422	2.9543
8.7275	2.9401
8.7129	2.9195
8.6982	2.8896
8.6837	2.8489
8.6692	2.8001
8.6547	2.7513
8.6403	2.7139
8.6259	2.6995
8.6116	2.7153
8.5973	2.7617
8.5830	2.8316
8.5688	2.9133
8.5547	2.9943
8.5406	3.0642
8.5266	3.1191
8.5126	3.1598
8.4986	3.1918
8.4847	3.2205
8.4708	3.2517
8.4570	3.2882
8.4432	3.3311
8.4295	3.3801
8.4158	3.4343
8.4022	3.4947
8.3886	3.5624
8.3750	3.6387
8.3615	3.7253
8.3481	3.8229
8.3347	3.9309
8.3213	4.0488
8.3079	4.1767
8.2946	4.3143
8.2814	4.4621
8.2682	4.6196
8.2550	4.7844
8.2419	4.9532
8.2288	5.1207
8.2158	5.2800
8.2028	5.4238
8.1898	5.5455
8.1769	5.6395
8.1640	5.7030
8.1512	5.7357
8.1384	5.7407
8.1256	5.7245
8.1129	5.6947
8.1002	5.6585
8.0876	5.6220
8.0750	5.5893
8.0624	5.5626
8.0499	5.5422
8.0374	5.5280
8.0250	5.5195
8.0126	5.5150
8.0002	5.5128
7.9879	5.5105
7.9756	5.5060
7.9634	5.4972
7.9512	5.4837
7.9390	5.4657
7.9268	5.4444
7.9147	5.4212
7.9027	5.3992
7.8906	5.3800
7.8786	5.3660
7.8667	5.3589
7.8548	5.3603
7.8429	5.3719
7.8310	5.3963
7.8192	5.4352
7.8075	5.4903
7.7957	5.5614
7.7840	5.6462
7.7723	5.7402
7.7607	5.8382
7.7491	5.9351
7.7375	6.0274
7.7260	6.1134
7.7145	6.1927
7.7031	6.2661
7.6916	6.3341
7.6802	6.3966
7.6689	6.4520
7.6575	6.4999
7.6462	6.5397
7.6350	6.5714
7.6238	6.5958
7.6126	6.6154
7.6014	6.6327
7.5903	6.6505
7.5792	6.6716
7.5681	6.6990
7.5571	6.7360
7.5461	6.7829
7.5351	6.8395
7.5242	6.9037
7.5133	6.9716
7.5024	7.0389
7.4916	7.1028
7.4807	7.1615
7.4700	7.2153
7.4592	7.2653
7.4485	7.3129
7.4378	7.3583
7.4272	7.3998
7.4165	7.4332
7.4059	7.4545
7.3954	7.4585
7.3848	7.4424
7.3743	7.4048
7.3639	7.3463
7.3534	7.2686
7.3430	7.1741
7.3326	7.0649
7.3223	6.9449
7.3119	6.8182
7.3016	6.6912
7.2914	6.5690
7.2811	6.4556
7.2709	6.3505
7.2607	6.2486
7.2506	6.1416
7.2404	6.0201
7.2303	5.8749
7.2203	5.7006
7.2102	5.4965
7.2002	5.2675
7.1902	5.0238
7.1803	4.7804
7.1703	4.5552
7.1604	4.3662
7.1506	4.2253
7.1407	4.1358
7.1309	4.0910
7.1211	4.0756
7.1113	4.0706
7.1016	4.0576
7.0919	4.0256
7.0822	3.9714
7.0725	3.8987
7.0629	3.8149
7.0533	3.7282
7.0437	3.6446
7.0341	3.5662
7.0246	3.4914
7.0151	3.4177
7.0056	3.3424
6.9962	3.2650
6.9867	3.1871
6.9773	3.1118
6.9679	3.0436
6.9586	2.9865
6.9493	2.9417
6.9400	2.9081
6.9307	2.8825
6.9214	2.8605
6.9122	2.8378
6.9030	2.8127
6.8938	2.7866
6.8847	2.7636
6.8755	2.7480
6.8664	2.7433
6.8573	2.7506
6.8483	2.7674
6.8393	2.7892
6.8302	2.8112
6.8213	2.8314
6.8123	2.8496
6.8034	2.8676
6.7944	2.8882
6.7855	2.9138
6.7767	2.9446
6.7678	2.9787
6.7590	3.0140
6.7502	3.0490
6.7414	3.0838
6.7327	3.1200
6.7239	3.1610
6.7152	3.2107
6.7065	3.2723
6.6979	3.3455
6.6892	3.4281
6.6806	3.5158
6.6720	3.6048
6.6634	3.6946
6.6549	3.7881
6.6464	3.8909
6.6378	4.0088
6.6294	4.1431
6.6209	4.2887
6.6124	4.4370
6.6040	4.5795
6.5956	4.7129
6.5872	4.8415
6.5789	4.9762
6.5705	5.1292
6.5622	5.3082
6.5539	5.5131
6.5456	5.7345
6.5374	5.9578
6.5292	6.1702
6.5209	6.3656
6.5128	6.5494
6.5046	6.7346
6.4964	6.9373
6.4883	7.1672
6.4802	7.4201
6.4721	7.6761
6.4640	7.9044
6.4560	8.0740
6.4480	8.1671
6.4399	8.1853
6.4320	8.1510
6.4240	8.0970
6.4160	8.0529
6.4081	8.0354
6.4002	8.0408
6.3923	8.0496
6.3844	8.0375
6.3766	7.9868
6.3687	7.8921
6.3609	7.7612
6.3531	7.6084
6.3454	7.4502
6.3376	7.2968
6.3299	7.1490
6.3221	7.0036
6.3144	6.8556
6.3068	6.7024
6.2991	6.5432
6.2914	6.3803
6.2838	6.2150
6.2762	6.0471
6.2686	5.8737
6.2611	5.6912
6.2535	5.4977
6.2460	5.2950
6.2385	5.0868
6.2310	4.8791
6.2235	4.6769
6.2160	4.4834
6.2086	4.3003
6.2011	4.1298
6.1937	3.9761
6.1863	3.8457
6.1790	3.7457
6.1716	3.6813
6.1643	3.6517
6.1570	3.6515
6.1496	3.6704
6.1424	3.6976
6.1351	3.7268
6.1278	3.7571
6.1206	3.7931
6.1134	3.8400
6.1062	3.9018
6.0990	3.9771
6.0918	4.0590
6.0847	4.1400
6.0776	4.2167
6.0704	4.2935
6.0633	4.3804
6.0563	4.4905
6.0492	4.6345
6.0421	4.8147
6.0351	5.0219
6.0281	5.2400
6.0211	5.4522
6.0141	5.6462
6.0071	5.8160
6.0002	5.9635
5.9932	6.0942
5.9863	6.2119
5.9794	6.3159
5.9725	6.4016
5.9657	6.4681
5.9588	6.5212
5.9520	6.5750
5.9451	6.6498
5.9383	6.7644
5.9315	6.9292
5.9247	7.1395
5.9180	7.3789
5.9112	7.6288
5.9045	7.8767
5.8978	8.1228
5.8911	8.3776
5.8844	8.6544
5.8777	8.9613
5.8711	9.2924
5.8644	9.6280
5.8578	9.9429
5.8512	10.218
5.8446	10.451
5.8380	10.655
5.8314	10.855
5.8249	11.078
5.8184	11.337
5.8118	11.625
5.8053	11.918
5.7988	12.186
5.7923	12.407
5.7859	12.576
5.7794	12.707
5.7730	12.830
5.7666	12.973
5.7602	13.153
5.7538	13.366
5.7474	13.595
5.7410	13.819
5.7347	14.019
5.7283	14.188
5.7220	14.328
5.7157	14.450
5.7094	14.559
5.7031	14.660
5.6969	14.747
5.6906	14.813
5.6844	14.846
5.6782	14.838
5.6719	14.781
5.6657	14.676
5.6596	14.529
5.6534	14.355
5.6472	14.173
5.6411	14.003
5.6349	13.858
5.6288	13.738
5.6227	13.628
5.6166	13.497
5.6106	13.311
5.6045	13.042
5.5984	12.682
5.5924	12.252
5.5864	11.802
5.5804	11.405
5.5744	11.134
5.5684	11.042
5.5624	11.147
5.5564	11.425
5.5505	11.821
5.5445	12.261
5.5386	12.680
5.5327	13.033
5.5268	13.307
5.5209	13.510
5.5151	13.666
5.5092	13.801
5.5033	13.936
5.4975	14.087
5.4917	14.260
5.4859	14.462
5.4801	14.700
5.4743	14.971
5.4685	15.268
5.4628	15.574
5.4570	15.863
5.4513	16.103
5.4455	16.270
5.4398	16.349
5.4341	16.342
5.4284	16.258
5.4228	16.110
5.4171	15.912
5.4114	15.668
5.4058	15.380
5.4002	15.048
5.3945	14.680
5.3889	14.291
5.3833	13.900
5.3778	13.531
5.3722	13.206
5.3666	12.943
5.3611	12.751
5.3555	12.634
5.3500	12.590
5.3445	12.611
5.3390	12.683
5.3335	12.792
5.3280	12.922
5.3225	13.064
5.3171	13.210
5.3116	13.361
5.3062	13.523
5.3008	13.705
5.2954	13.915
5.2900	14.158
5.2846	14.440
5.2792	14.759
5.2738	15.113
5.2684	15.498
5.2631	15.909
5.2578	16.345
5.2524	16.803
5.2471	17.278
5.2418	17.762
5.2365	18.245
5.2312	18.715
5.2260	19.159
5.2207	19.564
5.2154	19.922
5.2102	20.226
5.2050	20.477
5.1998	20.674
5.1945	20.823
5.1893	20.931
5.1842	21.007
5.1790	21.059
5.1738	21.094
5.1686	21.118
5.1635	21.134
5.1584	21.147
5.1532	21.160
5.1481	21.179
5.1430	21.206
5.1379	21.246
5.1328	21.297
5.1277	21.357
5.1227	21.417
5.1176	21.469
5.1126	21.503
5.1075	21.512
5.1025	21.492
5.0975	21.444
5.0925	21.371
5.0875	21.284
5.0825	21.192
5.0775	21.106
5.0726	21.038
5.0676	20.994
5.0627	20.978
5.0577	20.988
5.0528	21.019
5.0479	21.059
5.0430	21.100
5.0380	21.133
5.0332	21.156
5.0283	21.173
5.0234	21.191
5.0185	21.222
5.0137	21.275
5.0088	21.355
5.0040	21.467
4.9992	21.612
4.9944	21.796
4.9896	22.023
4.9848	22.299
4.9800	22.623
4.9752	22.992
4.9704	23.389
4.9657	23.795
4.9609	24.185
4.9562	24.540
4.9514	24.849
4.9467	25.112
4.9420	25.340
4.9373	25.552
4.9326	25.770
4.9279	26.016
4.9232	26.305
4.9186	26.645
4.9139	27.034
4.9092	27.463
4.9046	27.917
4.9000	28.376
4.8953	28.822
4.8907	29.240
4.8861	29.619
4.8815	29.953
4.8769	30.246
4.8723	30.500
4.8678	30.721
4.8632	30.914
4.8586	31.083
4.8541	31.232
4.8495	31.364
4.8450	31.483
4.8405	31.591
4.8360	31.694
4.8315	31.790
4.8270	31.880
4.8225	31.965
4.8180	32.043
4.8135	32.115
4.8090	32.182
4.8046	32.246
4.8001	32.308
4.7957	32.366
4.7913	32.420
4.7868	32.468
4.7824	32.509
4.7780	32.542
4.7736	32.569
4.7692	32.588
4.7648	32.600
4.7605	32.605
4.7561	32.601
4.7517	32.592
4.7474	32.580
4.7431	32.571
4.7387	32.570
4.7344	32.579
4.7301	32.599
4.7258	32.624
4.7215	32.647
4.7172	32.662
4.7129	32.661
4.7086	32.644
4.7043	32.611
4.7000	32.570
4.6958	32.527
4.6915	32.493
4.6873	32.474
4.6831	32.477
4.6788	32.504
4.6746	32.556
4.6704	32.628
4.6662	32.719
4.6620	32.826
4.6578	32.943
4.6536	33.069
4.6495	33.198
4.6453	33.327
4.6411	33.453
4.6370	33.571
4.6328	33.682
4.6287	33.784
4.6246	33.876
4.6205	33.960
4.6163	34.037
4.6122	34.105
4.6081	34.168
4.6040	34.225
4.6000	34.278
4.5959	34.327
4.5918	34.373
4.5877	34.413
4.5837	34.448
4.5796	34.476
4.5756	34.498
4.5716	34.514
4.5675	34.525
4.5635	34.532
4.5595	34.536
4.5555	34.537
4.5515	34.538
4.5475	34.539
4.5435	34.538
4.5395	34.537
4.5356	34.533
4.5316	34.523
4.5276	34.509
4.5237	34.488
4.5197	34.462
4.5158	34.432
4.5119	34.401
4.5080	34.371
4.5040	34.344
4.5001	34.321
4.4962	34.303
4.4923	34.290
4.4884	34.284
4.4846	34.285
4.4807	34.294
4.4768	34.311
4.4730	34.338
4.4691	34.375
4.4652	34.425
4.4614	34.489
4.4576	34.567
4.4537	34.657
4.4499	34.757
4.4461	34.864
4.4423	34.975
4.4385	35.087
4.4347	35.199
4.4309	35.311
4.4271	35.424
4.4233	35.540
4.4196	35.660
4.4158	35.785
4.4120	35.912
4.4083	36.042
4.4045	36.171
4.4008	36.298
4.3971	36.423
4.3934	36.547
4.3896	36.668
4.3859	36.789
4.3822	36.907
4.3785	37.022
4.3748	37.134
4.3711	37.242
4.3674	37.345
4.3638	37.444
4.3601	37.538
4.3564	37.628
4.3528	37.713
4.3491	37.794
4.3455	37.869
4.3418	37.941
4.3382	38.008
4.3346	38.073
4.3310	38.136
4.3273	38.200
4.3237	38.264
4.3201	38.331
4.3165	38.397
4.3129	38.464
4.3094	38.528
4.3058	38.590
4.3022	38.647
4.2986	38.698
4.2951	38.741
4.2915	38.776
4.2880	38.802
4.2844	38.820
4.2809	38.837
4.2774	38.857
4.2738	38.887
4.2703	38.933
4.2668	38.999
4.2633	39.081
4.2598	39.176
4.2563	39.277
4.2528	39.377
4.2493	39.470
4.2458	39.554
4.2424	39.629
4.2389	39.696
4.2354	39.758
4.2320	39.816
4.2285	39.871
4.2251	39.924
4.2216	39.973
4.2182	40.019
4.2148	40.061
4.2113	40.099
4.2079	40.136
4.2045	40.171
4.2011	40.207
4.1977	40.243
4.1943	40.281
4.1909	40.319
4.1875	40.355
4.1841	40.391
4.1808	40.425
4.1774	40.458
4.1740	40.492
4.1707	40.525
4.1673	40.558
4.1640	40.588
4.1606	40.614
4.1573	40.636
4.1540	40.656
4.1506	40.677
4.1473	40.700
4.1440	40.725
4.1407	40.752
4.1374	40.777
4.1341	40.799
4.1308	40.816
4.1275	40.830
4.1242	40.843
4.1209	40.854
4.1177	40.866
4.1144	40.876
4.1111	40.884
4.1079	40.889
4.1046	40.891
4.1014	40.891
4.0981	40.889
4.0949	40.887
4.0917	40.884
4.0884	40.878
4.0852	40.867
4.0820	40.850
4.0788	40.827
4.0756	40.797
4.0724	40.763
4.0692	40.723
4.0660	40.679
4.0628	40.625
4.0596	40.559
4.0565	40.474
4.0533	40.364
4.0501	40.228
4.0470	40.064
4.0438	39.873
4.0406	39.657
4.0375	39.422
4.0344	39.169
4.0312	38.902
4.0281	38.619
4.0250	38.313
4.0218	37.972
4.0187	37.577
4.0156	37.112
4.0125	36.562
4.0094	35.922
4.0063	35.200
4.0032	34.413
4.0001	33.588
3.9970	32.757
3.9940	31.952
3.9909	31.201
3.9878	30.525
3.9847	29.936
3.9817	29.443
3.9786	29.049
3.9756	28.758
3.9725	28.574
3.9695	28.503
3.9665	28.549
3.9634	28.710
3.9604	28.980
3.9574	29.343
3.9544	29.774
3.9513	30.247
3.9483	30.732
3.9453	31.201
3.9423	31.628
3.9393	31.996
3.9363	32.295
3.9333	32.527
3.9304	32.704
3.9274	32.845
3.9244	32.972
3.9214	33.105
3.9185	33.261
3.9155	33.448
3.9126	33.667
3.9096	33.912
3.9067	34.168
3.9037	34.419
3.9008	34.647
3.8979	34.838
3.8949	34.983
3.8920	35.085
3.8891	35.150
3.8862	35.190
3.8833	35.219
3.8804	35.245
3.8775	35.278
3.8746	35.320
3.8717	35.377
3.8688	35.453
3.8659	35.556
3.8630	35.689
3.8601	35.855
3.8573	36.047
3.8544	36.257
3.8515	36.468
3.8487	36.667
3.8458	36.841
3.8430	36.985
3.8401	37.095
3.8373	37.175
3.8344	37.228
3.8316	37.257
3.8288	37.260
3.8259	37.235
3.8231	37.180
3.8203	37.097
3.8175	36.994
3.8147	36.886
3.8119	36.794
3.8091	36.738
3.8063	36.735
3.8035	36.791
3.8007	36.903
3.7979	37.059
3.7951	37.242
3.7924	37.436
3.7896	37.628
3.7868	37.809
3.7841	37.975
3.7813	38.122
3.7785	38.251
3.7758	38.364
3.7730	38.461
3.7703	38.548
3.7676	38.626
3.7648	38.700
3.7621	38.769
3.7594	38.834
3.7566	38.893
3.7539	38.944
3.7512	38.985
3.7485	39.017
3.7458	39.038
3.7431	39.050
3.7404	39.055
3.7377	39.052
3.7350	39.044
3.7323	39.031
3.7296	39.012
3.7269	38.986
3.7242	38.952
3.7216	38.911
3.7189	38.865
3.7162	38.816
3.7136	38.768
3.7109	38.722
3.7083	38.679
3.7056	38.636
3.7030	38.592
3.7003	38.543
3.6977	38.490
3.6950	38.434
3.6924	38.379
3.6898	38.327
3.6872	38.280
3.6845	38.237
3.6819	38.193
3.6793	38.147
3.6767	38.094
3.6741	38.034
3.6715	37.969
3.6689	37.901
3.6663	37.831
3.6637	37.761
3.6611	37.691
3.6585	37.621
3.6560	37.552
3.6534	37.482
3.6508	37.412
3.6482	37.343
3.6457	37.273
3.6431	37.203
3.6406	37.131
3.6380	37.057
3.6355	36.981
3.6329	36.902
3.6304	36.821
3.6278	36.737
3.6253	36.651
3.6227	36.564
3.6202	36.476
3.6177	36.387
3.6152	36.296
3.6127	36.202
3.6101	36.107
3.6076	36.010
3.6051	35.912
3.6026	35.813
3.6001	35.714
3.5976	35.613
3.5951	35.509
3.5926	35.400
3.5901	35.284
3.5876	35.162
3.5852	35.035
3.5827	34.905
3.5802	34.775
3.5777	34.645
3.5753	34.517
3.5728	34.390
3.5704	34.263
3.5679	34.133
3.5654	34.000
3.5630	33.861
3.5605	33.718
3.5581	33.573
3.5557	33.428
3.5532	33.287
3.5508	33.151
3.5484	33.020
3.5459	32.894
3.5435	32.769
3.5411	32.641
3.5387	32.505
3.5363	32.355
3.5338	32.187
3.5314	31.997
3.5290	31.779
3.5266	31.532
3.5242	31.255
3.5218	30.954
3.5195	30.635
3.5171	30.308
3.5147	29.983
3.5123	29.670
3.5099	29.372
3.5075	29.094
3.5052	28.833
3.5028	28.589
3.5004	28.361
3.4981	28.145
3.4957	27.940
3.4934	27.743
3.4910	27.551
3.4887	27.363
3.4863	27.180
3.4840	27.007
3.4816	26.854
3.4793	26.735
3.4770	26.659
3.4746	26.629
3.4723	26.643
3.4700	26.685
3.4677	26.736
3.4653	26.778
3.4630	26.795
3.4607	26.776
3.4584	26.721
3.4561	26.637
3.4538	26.533
3.4515	26.423
3.4492	26.317
3.4469	26.223
3.4446	26.145
3.4423	26.080
3.4400	26.024
3.4378	25.968
3.4355	25.903
3.4332	25.821
3.4309	25.716
3.4287	25.588
3.4264	25.440
3.4241	25.283
3.4219	25.128
3.4196	24.989
3.4174	24.872
3.4151	24.784
3.4129	24.721
3.4106	24.677
3.4084	24.647
3.4061	24.626
3.4039	24.610
3.4017	24.596
3.3994	24.581
3.3972	24.563
3.3950	24.538
3.3928	24.504
3.3906	24.463
3.3883	24.417
3.3861	24.370
3.3839	24.328
3.3817	24.291
3.3795	24.258
3.3773	24.225
3.3751	24.186
3.3729	24.134
3.3707	24.065
3.3685	23.978
3.3663	23.875
3.3641	23.761
3.3620	23.638
3.3598	23.513
3.3576	23.392
3.3554	23.280
3.3533	23.186
3.3511	23.117
3.3489	23.076
3.3468	23.063
3.3446	23.075
3.3425	23.100
3.3403	23.127
3.3382	23.148
3.3360	23.153
3.3339	23.140
3.3317	23.106
3.3296	23.052
3.3274	22.979
3.3253	22.890
3.3232	22.786
3.3210	22.671
3.3189	22.550
3.3168	22.428
3.3147	22.308
3.3126	22.193
3.3104	22.090
3.3083	22.001
3.3062	21.931
3.3041	21.883
3.3020	21.857
3.2999	21.850
3.2978	21.854
3.2957	21.863
3.2936	21.868
3.2915	21.861
3.2894	21.838
3.2874	21.797
3.2853	21.741
3.2832	21.673
3.2811	21.597
3.2790	21.518
3.2770	21.436
3.2749	21.354
3.2728	21.270
3.2708	21.187
3.2687	21.105
3.2666	21.026
3.2646	20.954
3.2625	20.889
3.2605	20.829
3.2584	20.774
3.2564	20.717
3.2543	20.656
3.2523	20.588
3.2503	20.514
3.2482	20.436
3.2462	20.358
3.2442	20.284
3.2421	20.213
3.2401	20.145
3.2381	20.077
3.2361	20.007
3.2340	19.933
3.2320	19.854
3.2300	19.772
3.2280	19.688
3.2260	19.601
3.2240	19.511
3.2220	19.417
3.2200	19.317
3.2180	19.214
3.2160	19.107
3.2140	18.999
3.2120	18.889
3.2100	18.778
3.2080	18.667
3.2060	18.556
3.2040	18.448
3.2021	18.344
3.2001	18.242
3.1981	18.142
3.1961	18.041
3.1942	17.935
3.1922	17.824
3.1902	17.708
3.1883	17.590
3.1863	17.472
3.1844	17.358
3.1824	17.247
3.1805	17.139
3.1785	17.031
3.1766	16.922
3.1746	16.810
3.1727	16.697
3.1707	16.581
3.1688	16.463
3.1669	16.346
3.1649	16.229
3.1630	16.111
3.1611	15.993
3.1591	15.873
3.1572	15.753
3.1553	15.631
3.1534	15.510
3.1515	15.390
3.1495	15.272
3.1476	15.154
3.1457	15.036
3.1438	14.917
3.1419	14.797
3.1400	14.677
3.1381	14.559
3.1362	14.446
3.1343	14.337
3.1324	14.231
3.1305	14.127
3.1286	14.020
3.1268	13.910
3.1249	13.796
3.1230	13.680
3.1211	13.565
3.1192	13.451
3.1174	13.339
3.1155	13.229
3.1136	13.122
3.1117	13.017
3.1099	12.914
3.1080	12.814
3.1061	12.715
3.1043	12.616
3.1024	12.518
3.1006	12.418
3.0987	12.317
3.0969	12.214
3.0950	12.110
3.0932	12.007
3.0913	11.903
3.0895	11.803
3.0876	11.708
3.0858	11.621
3.0840	11.544
3.0821	11.477
3.0803	11.422
3.0785	11.376
3.0766	11.337
3.0748	11.299
3.0730	11.261
3.0712	11.220
3.0694	11.176
3.0675	11.128
3.0657	11.080
3.0639	11.031
3.0621	10.983
3.0603	10.939
3.0585	10.898
3.0567	10.859
3.0549	10.822
3.0531	10.785
3.0513	10.745
3.0495	10.703
3.0477	10.659
3.0459	10.616
3.0441	10.574
3.0423	10.533
3.0406	10.492
3.0388	10.448
3.0370	10.399
3.0352	10.347
3.0334	10.294
3.0317	10.243
3.0299	10.197
3.0281	10.156
3.0264	10.118
3.0246	10.082
3.0228	10.042
3.0211	9.9995
3.0193	9.9541
3.0176	9.9077
3.0158	9.8624
3.0140	9.8200
3.0123	9.7803
3.0105	9.7412
3.0088	9.7012
3.0070	9.6595
3.0053	9.6171
3.0036	9.5752
3.0018	9.5352
3.0001	9.4977
2.9984	9.4624
2.9966	9.4262
2.9949	9.3871
2.9932	9.3429
2.9914	9.2936
2.9897	9.2410
2.9880	9.1889
2.9863	9.1409
2.9845	9.0992
2.9828	9.0637
2.9811	9.0326
2.9794	9.0030
2.9777	8.9715
2.9760	8.9362
2.9743	8.8974
2.9726	8.8557
2.9709	8.8110
2.9692	8.7631
2.9675	8.7108
2.9658	8.6540
2.9641	8.5929
2.9624	8.5299
2.9607	8.4681
2.9590	8.4091
2.9573	8.3537
2.9556	8.3004
2.9539	8.2476
2.9523	8.1941
2.9506	8.1394
2.9489	8.0849
2.9472	8.0326
2.9455	7.9845
2.9439	7.9421
2.9422	7.9063
2.9405	7.8779
2.9389	7.8561
2.9372	7.8400
2.9355	7.8279
2.9339	7.8187
2.9322	7.8121
2.9306	7.8088
2.9289	7.8109
2.9272	7.8201
2.9256	7.8372
2.9239	7.8613
2.9223	7.8902
2.9207	7.9203
2.9190	7.9497
2.9174	7.9771
2.9157	8.0032
2.9141	8.0290
2.9124	8.0558
2.9108	8.0832
2.9092	8.1105
2.9075	8.1358
2.9059	8.1578
2.9043	8.1763
2.9027	8.1917
2.9010	8.2050
2.8994	8.2175
2.8978	8.2310
2.8962	8.2473
2.8946	8.2672
2.8929	8.2916
2.8913	8.3198
2.8897	8.3506
2.8881	8.3804
2.8865	8.4055
2.8849	8.4238
2.8833	8.4342
2.8817	8.4375
2.8801	8.4361
2.8785	8.4323
2.8769	8.4285
2.8753	8.4250
2.8737	8.4214
2.8721	8.4176
2.8705	8.4138
2.8689	8.4107
2.8673	8.4091
2.8658	8.4096
2.8642	8.4119
2.8626	8.4150
2.8610	8.4174
2.8594	8.4181
2.8579	8.4174
2.8563	8.4157
2.8547	8.4136
2.8531	8.4112
2.8516	8.4070
2.8500	8.3987
2.8484	8.3838
2.8469	8.3620
2.8453	8.3340
2.8437	8.3025
2.8422	8.2701
2.8406	8.2383
2.8391	8.2069
2.8375	8.1739
2.8360	8.1375
2.8344	8.0965
2.8329	8.0513
2.8313	8.0037
2.8298	7.9551
2.8282	7.9066
2.8267	7.8578
2.8252	7.8083
2.8236	7.7571
2.8221	7.7043
2.8205	7.6503
2.8190	7.5963
2.8175	7.5428
2.8159	7.4910
2.8144	7.4405
2.8129	7.3908
2.8114	7.3394
2.8098	7.2842
2.8083	7.2236
2.8068	7.1578
2.8053	7.0884
2.8038	7.0185
2.8022	6.9510
2.8007	6.8866
2.7992	6.8234
2.7977	6.7571
2.7962	6.6827
2.7947	6.5958
2.7932	6.4937
2.7917	6.3770
2.7902	6.2479
2.7887	6.1106
2.7872	5.9687
2.7857	5.8257
2.7842	5.6831
2.7827	5.5405
2.7812	5.3977
2.7797	5.2554
2.7782	5.1157
2.7767	4.9819
2.7752	4.8571
2.7738	4.7432
2.7723	4.6387
2.7708	4.5409
2.7693	4.4467
2.7678	4.3546
2.7664	4.2658
2.7649	4.1831
2.7634	4.1092
2.7619	4.0462
2.7605	3.9953
2.7590	3.9579
2.7575	3.9375
2.7561	3.9392
2.7546	3.9683
2.7531	4.0271
2.7517	4.1130
2.7502	4.2191
2.7488	4.3354
2.7473	4.4521
2.7458	4.5651
2.7444	4.6762
2.7429	4.7932
2.7415	4.9267
2.7400	5.0878
2.7386	5.2834
2.7371	5.5154
2.7357	5.7809
2.7343	6.0731
2.7328	6.3822
2.7314	6.6981
2.7299	7.0152
2.7285	7.3337
2.7271	7.6631
2.7256	8.0219
2.7242	8.4337
2.7228	8.9204
2.7213	9.4935
2.7199	10.149
2.7185	10.868
2.7171	11.625
2.7156	12.398
2.7142	13.176
2.7128	13.963
2.7114	14.770
2.7100	15.610
2.7085	16.486
2.7071	17.392
2.7057	18.310
2.7043	19.224
2.7029	20.119
2.7015	20.990
2.7001	21.843
2.6987	22.696
2.6973	23.574
2.6959	24.503
2.6945	25.498
2.6931	26.562
2.6917	27.674
2.6903	28.794
2.6889	29.877
2.6875	30.878
2.6861	31.761
2.6847	32.509
2.6833	33.123
2.6819	33.624
2.6805	34.042
2.6791	34.405
2.6778	34.729
2.6764	35.015
2.6750	35.252
2.6736	35.425
2.6722	35.531
2.6709	35.601
2.6695	35.688
2.6681	35.848
2.6667	36.118
2.6654	36.508
2.6640	36.987
2.6626	37.492
2.6613	37.955
2.6599	38.329
2.6585	38.600
2.6572	38.781
2.6558	38.906
2.6545	39.016
2.6531	39.139
2.6517	39.283
2.6504	39.439
2.6490	39.593
2.6477	39.733
2.6463	39.857
2.6450	39.971
2.6436	40.087
2.6423	40.206
2.6409	40.323
2.6396	40.418
2.6382	40.464
2.6369	40.441
2.6356	40.348
2.6342	40.204
2.6329	40.047
2.6315	39.927
2.6302	39.886
2.6289	39.941
2.6275	40.067
2.6262	40.218
2.6249	40.338
2.6236	40.383
2.6222	40.344
2.6209	40.257
2.6196	40.181
2.6183	40.172
2.6169	40.254
2.6156	40.416
2.6143	40.606
2.6130	40.752
2.6117	40.795
2.6103	40.724
2.6090	40.575
2.6077	40.420
2.6064	40.337
2.6051	40.376
2.6038	40.527
2.6025	40.714
2.6012	40.835
2.5999	40.817
2.5986	40.653
2.5973	40.403
2.5960	40.176
2.5947	40.081
2.5934	40.166
2.5921	40.398
2.5908	40.683
2.5895	40.926
2.5882	41.064
2.5869	41.095
2.5856	41.066
2.5843	41.042
2.5830	41.073
2.5817	41.161
2.5805	41.276
2.5792	41.375
2.5779	41.431
2.5766	41.439
2.5753	41.417
2.5741	41.398
2.5728	41.411
2.5715	41.460
2.5702	41.525
2.5690	41.575
2.5677	41.584
2.5664	41.543
2.5651	41.469
2.5639	41.400
2.5626	41.380
2.5613	41.433
2.5601	41.557
2.5588	41.720
2.5575	41.877
2.5563	41.989
2.5550	42.039
2.5538	42.035
2.5525	42.001
2.5513	41.966
2.5500	41.947
2.5487	41.947
2.5475	41.962
2.5462	41.984
2.5450	42.007
2.5437	42.026
2.5425	42.041
2.5413	42.053
2.5400	42.056
2.5388	42.050
2.5375	42.036
2.5363	42.021
2.5350	42.012
2.5338	42.014
2.5326	42.028
2.5313	42.053
2.5301	42.081
2.5289	42.106
2.5276	42.127
2.5264	42.142
2.5252	42.154
2.5239	42.163
2.5227	42.169
2.5215	42.171
2.5202	42.169
2.5190	42.164
2.5178	42.161
2.5166	42.162
2.5154	42.168
2.5141	42.179
2.5129	42.191
2.5117	42.203
2.5105	42.213
2.5093	42.224
2.5081	42.237
2.5068	42.253
2.5056	42.270
2.5044	42.287
2.5032	42.300
2.5020	42.308
2.5008	42.311
2.4996	42.311
2.4984	42.311
2.4972	42.313
2.4960	42.318
2.4948	42.326
2.4936	42.338
2.4924	42.351
2.4912	42.365
2.4900	42.380
2.4888	42.395
2.4876	42.407
2.4864	42.417
2.4852	42.425
2.4840	42.432
2.4828	42.442
2.4816	42.454
2.4805	42.468
2.4793	42.482
2.4781	42.493
2.4769	42.500
2.4757	42.502
2.4745	42.500
2.4734	42.497
2.4722	42.497
2.4710	42.502
2.4698	42.511
2.4686	42.525
2.4675	42.542
2.4663	42.561
2.4651	42.581
2.4640	42.600
2.4628	42.617
2.4616	42.629
2.4604	42.637
2.4593	42.641
2.4581	42.643
2.4569	42.648
2.4558	42.657
2.4546	42.670
2.4535	42.684
2.4523	42.695
2.4511	42.701
2.4500	42.702
2.4488	42.701
2.4477	42.703
2.4465	42.713
2.4454	42.731
2.4442	42.758
2.4431	42.791
2.4419	42.824
2.4408	42.855
2.4396	42.883
2.4385	42.911
2.4373	42.941
2.4362	42.974
2.4350	43.011
2.4339	43.051
2.4327	43.091
2.4316	43.128
2.4305	43.162
2.4293	43.194
2.4282	43.224
2.4270	43.256
2.4259	43.291
2.4248	43.330
2.4236	43.370
2.4225	43.411
2.4214	43.451
2.4202	43.489
2.4191	43.527
2.4180	43.566
2.4169	43.607
2.4157	43.648
2.4146	43.688
2.4135	43.723
2.4124	43.753
2.4112	43.779
2.4101	43.802
2.4090	43.827
2.4079	43.856
2.4068	43.888
2.4056	43.922
2.4045	43.955
2.4034	43.984
2.4023	44.007
2.4012	44.024
2.4001	44.036
2.3990	44.045
2.3979	44.053
2.3967	44.062
2.3956	44.074
2.3945	44.089
2.3934	44.107
2.3923	44.130
2.3912	44.154
2.3901	44.180
2.3890	44.203
2.3879	44.222
2.3868	44.237
2.3857	44.247
2.3846	44.254
2.3835	44.260
2.3824	44.266
2.3813	44.271
2.3802	44.277
2.3791	44.281
2.3781	44.284
2.3770	44.287
2.3759	44.290
2.3748	44.295
2.3737	44.303
2.3726	44.313
2.3715	44.323
2.3704	44.333
2.3694	44.339
2.3683	44.340
2.3672	44.335
2.3661	44.327
2.3650	44.316
2.3640	44.305
2.3629	44.294
2.3618	44.285
2.3607	44.275
2.3597	44.264
2.3586	44.250
2.3575	44.233
2.3564	44.216
2.3554	44.201
2.3543	44.188
2.3532	44.180
2.3522	44.174
2.3511	44.169
2.3500	44.164
2.3490	44.157
2.3479	44.151
2.3468	44.147
2.3458	44.147
2.3447	44.155
2.3436	44.169
2.3426	44.189
2.3415	44.212
2.3405	44.236
2.3394	44.259
2.3384	44.281
2.3373	44.301
2.3363	44.322
2.3352	44.347
2.3342	44.377
2.3331	44.416
2.3321	44.462
2.3310	44.512
2.3300	44.562
2.3289	44.608
2.3279	44.646
2.3268	44.676
2.3258	44.702
2.3247	44.727
2.3237	44.753
2.3226	44.781
2.3216	44.810
2.3206	44.838
2.3195	44.866
2.3185	44.891
2.3175	44.916
2.3164	44.940
2.3154	44.965
2.3144	44.989
2.3133	45.013
2.3123	45.035
2.3113	45.058
2.3102	45.082
2.3092	45.106
2.3082	45.132
2.3071	45.159
2.3061	45.187
2.3051	45.214
2.3041	45.240
2.3030	45.264
2.3020	45.285
2.3010	45.301
2.3000	45.313
2.2990	45.323
2.2979	45.333
2.2969	45.345
2.2959	45.361
2.2949	45.382
2.2939	45.404
2.2929	45.426
2.2918	45.442
2.2908	45.452
2.2898	45.456
2.2888	45.454
2.2878	45.451
2.2868	45.449
2.2858	45.451
2.2848	45.458
2.2838	45.468
2.2828	45.479
2.2818	45.489
2.2808	45.498
2.2798	45.505
2.2787	45.511
2.2777	45.518
2.2767	45.526
2.2757	45.533
2.2747	45.536
2.2738	45.532
2.2728	45.519
2.2718	45.495
2.2708	45.463
2.2698	45.424
2.2688	45.384
2.2678	45.345
2.2668	45.310
2.2658	45.282
2.2648	45.258
2.2638	45.240
2.2628	45.225
2.2618	45.212
2.2609	45.200
2.2599	45.188
2.2589	45.175
2.2579	45.159
2.2569	45.140
2.2559	45.118
2.2550	45.094
2.2540	45.068
2.2530	45.044
2.2520	45.021
2.2510	45.002
2.2501	44.985
2.2491	44.969
2.2481	44.953
2.2471	44.936
2.2462	44.918
2.2452	44.899
2.2442	44.879
2.2433	44.858
2.2423	44.835
2.2413	44.810
2.2403	44.782
2.2394	44.753
2.2384	44.723
2.2374	44.692
2.2365	44.660
2.2355	44.626
2.2345	44.589
2.2336	44.550
2.2326	44.508
2.2317	44.464
2.2307	44.419
2.2297	44.375
2.2288	44.333
2.2278	44.294
2.2269	44.259
2.2259	44.227
2.2250	44.195
2.2240	44.164
2.2231	44.132
2.2221	44.098
2.2211	44.064
2.2202	44.030
2.2192	43.997
2.2183	43.967
2.2173	43.941
2.2164	43.920
2.2155	43.903
2.2145	43.889
2.2136	43.875
2.2126	43.860
2.2117	43.845
2.2107	43.832
2.2098	43.825
2.2088	43.826
2.2079	43.836
2.2070	43.853
2.2060	43.874
2.2051	43.897
2.2041	43.922
2.2032	43.949
2.2023	43.979
2.2013	44.015
2.2004	44.056
2.1995	44.100
2.1985	44.147
2.1976	44.195
2.1967	44.247
2.1957	44.301
2.1948	44.358
2.1939	44.416
2.1930	44.471
2.1920	44.522
2.1911	44.568
2.1902	44.609
2.1893	44.647
2.1883	44.686
2.1874	44.726
2.1865	44.766
2.1856	44.805
2.1846	44.843
2.1837	44.880
2.1828	44.920
2.1819	44.963
2.1810	45.011
2.1800	45.062
2.1791	45.114
2.1782	45.163
2.1773	45.206
2.1764	45.241
2.1755	45.272
2.1746	45.300
2.1736	45.330
2.1727	45.362
2.1718	45.396
2.1709	45.427
2.1700	45.451
2.1691	45.465
2.1682	45.470
2.1673	45.470
2.1664	45.471
2.1655	45.478
2.1646	45.495
2.1637	45.519
2.1628	45.546
2.1619	45.570
2.1610	45.589
2.1601	45.602
2.1592	45.609
2.1583	45.613
2.1574	45.614
2.1565	45.615
2.1556	45.613
2.1547	45.610
2.1538	45.604
2.1529	45.599
2.1520	45.597
2.1511	45.598
2.1502	45.603
2.1493	45.614
2.1484	45.630
2.1475	45.648
2.1466	45.665
2.1458	45.676
2.1449	45.679
2.1440	45.673
2.1431	45.659
2.1422	45.643
2.1413	45.629
2.1404	45.619
2.1396	45.612
2.1387	45.606
2.1378	45.598
2.1369	45.588
2.1360	45.578
2.1352	45.571
2.1343	45.569
2.1334	45.573
2.1325	45.578
2.1316	45.581
2.1308	45.578
2.1299	45.569
2.1290	45.555
2.1281	45.538
2.1273	45.523
2.1264	45.514
2.1255	45.513
2.1247	45.523
2.1238	45.540
2.1229	45.561
2.1220	45.579
2.1212	45.589
2.1203	45.590
2.1194	45.582
2.1186	45.569
2.1177	45.557
2.1168	45.550
2.1160	45.549
2.1151	45.551
2.1143	45.553
2.1134	45.551
2.1125	45.544
2.1117	45.533
2.1108	45.520
2.1100	45.509
2.1091	45.502
2.1082	45.499
2.1074	45.501
2.1065	45.504
2.1057	45.506
2.1048	45.505
2.1040	45.501
2.1031	45.495
2.1023	45.490
2.1014	45.489
2.1005	45.492
2.0997	45.500
2.0988	45.509
2.0980	45.517
2.0971	45.523
2.0963	45.526
2.0955	45.527
2.0946	45.528
2.0938	45.528
2.0929	45.528
2.0921	45.526
2.0912	45.520
2.0904	45.512
2.0895	45.504
2.0887	45.498
2.0879	45.498
2.0870	45.504
2.0862	45.515
2.0853	45.530
2.0845	45.532
2.0837	45.543
2.0828	45.537
2.0820	45.508
2.0812	45.575
2.0803	45.495
2.0795	45.561
2.0760	45.561
2.0720	45.377
2.0680	45.490
2.0640	45.470
2.0600	45.117
2.0560	45.433
2.0520	45.433
2.0480	45.098
2.0440	45.284
2.0400	45.006
2.0360	44.785
2.0320	44.693
2.0280	44.364
2.0240	44.220
2.0200	44.512
2.0160	44.145
2.0120	43.870
2.0080	43.692
2.0040	43.531
2.0000	43.314
1.9960	42.825
1.9920	42.687
1.9880	42.664
1.9840	42.721
1.9800	42.246
1.9760	42.042
1.9720	41.737
1.9680	41.614
1.9640	41.556
1.9600	41.367
1.9560	41.122
1.9520	41.327
1.9480	41.145
1.9440	40.750
1.9400	40.388
1.9360	40.148
1.9320	39.945
1.9280	39.680
1.9240	39.752
1.9200	39.540
1.9160	39.263
1.9120	38.983
1.9080	39.049
1.9040	39.078
1.9000	39.444
1.8960	40.181
1.8920	40.323
1.8880	40.556
1.8840	40.652
1.8800	41.051
1.8760	41.560
1.8720	41.859
1.8680	42.057
1.8640	42.584
1.8600	43.257
1.8560	43.862
1.8520	44.248
1.8480	44.040
1.8440	43.174
1.8400	42.727
1.8360	42.693
1.8320	43.109
1.8280	43.426
1.8240	43.581
1.8200	43.450
1.8160	43.068
1.8120	43.010
1.8080	43.077
1.8040	42.857
1.8000	42.724
1.7960	42.635
1.7920	42.602
1.7880	42.349
1.7840	42.360
1.7800	42.426
1.7760	42.459
1.7720	42.525
1.7680	42.348
1.7640	42.249
1.7600	42.217
1.7560	42.360
1.7520	42.184
1.7480	42.086
1.7440	42.030
1.7400	42.194
1.7360	42.040
1.7320	42.017
1.7280	42.116
1.7240	42.149
1.7200	42.215
1.7160	42.370
1.7120	42.215
1.7080	41.929
1.7040	42.083
1.7000	41.985
1.6960	41.864
1.6920	41.896
1.6880	41.896
1.6840	41.642
1.6800	41.632
1.6760	41.599
1.6720	41.567
1.6680	41.327
1.6640	41.137
1.6600	41.297
1.6560	41.313
1.6520	41.345
1.6480	41.074
1.6440	40.986
1.6400	41.145
1.6360	40.993
1.6320	40.873
1.6280	40.975
1.6240	40.880
1.6200	40.609
1.6160	40.546
1.6120	40.609
1.6080	40.432
1.6040	40.432
1.6000	40.370
1.5960	40.458
1.5920	40.589
1.5880	40.652
1.5840	40.621
1.5800	40.589
1.5760	40.589
1.5720	40.142
1.5680	40.230
1.5640	40.261
1.5600	39.837
1.5560	39.842
1.5520	39.956
1.5480	40.054
1.5440	39.868
1.5400	39.745
1.5360	39.654
1.5320	39.597
1.5280	39.304
1.5240	39.009
1.5200	39.158
1.5160	39.220
1.5120	38.925
1.5080	38.631
1.5040	38.310
1.5000	38.281
1.4960	38.339
1.4920	38.693
1.4880	39.203
1.4840	38.526
1.4800	38.457
1.4760	38.369
1.4720	38.251
1.4680	38.193
1.4640	38.116
1.4600	38.193
1.4560	38.174
1.4520	38.029
1.4480	37.794
1.4440	37.505
1.4400	37.110
1.4360	37.022
1.4320	37.067
1.4280	37.103
1.4240	37.103
1.4200	36.811
1.4160	36.630
1.4120	36.225
1.4080	36.023
1.4040	35.896
1.4000	35.948
1.3960	36.279
1.3920	36.536
1.3880	36.800
1.3840	36.772
1.3800	36.866
1.3760	37.134
1.3720	37.583
1.3680	37.944
1.3640	37.148
1.3600	36.604
1.3560	36.483
1.3520	37.265
1.3480	37.540
1.3440	37.604
1.3400	37.060
1.3360	36.493
1.3320	36.449
1.3280	36.276
1.3240	36.411
1.3200	36.312
1.3160	36.104
1.3120	35.863
1.3080	35.695
1.3040	35.642
1.3000	35.502
1.2960	35.328
1.2920	35.319
1.2880	35.284
1.2840	35.109
1.2800	34.863
1.2760	34.817
1.2720	34.770
1.2680	35.204
1.2640	35.480
1.2600	35.481
1.2560	35.552
1.2520	35.436
1.2480	35.427
1.2440	35.157
1.2400	35.120
1.2360	35.083
1.2320	34.874
1.2280	34.496
1.2240	34.338
1.2200	34.364
1.2160	34.612
1.2120	34.625
1.2080	34.692
1.2040	34.681
1.2000	34.260
1.1960	33.789
1.1920	33.664
1.1880	33.614
1.1840	33.364
1.1800	33.315
1.1760	33.266
1.1720	33.130
1.1680	32.952
1.1640	32.817
1.1600	32.708
1.1560	32.381
1.1520	32.340
1.1480	32.347
1.1440	32.411
1.1400	32.601
1.1360	32.988
1.1320	32.697
1.1280	32.849
1.1240	32.454
1.1200	32.508
1.1160	32.311
1.1120	32.341
1.1080	32.228
1.1040	32.205
1.1000	32.228
1.0960	31.985
1.0920	31.990
1.0880	31.816
1.0840	31.615
1.0800	31.724
1.0760	31.793
1.0720	31.724
1.0680	31.638
1.0640	31.346
1.0600	31.111
1.0560	30.934
1.0520	31.101
1.0480	31.057
1.0440	30.978
1.0400	30.978
1.0360	30.934
1.0320	31.102
1.0280	30.835
1.0240	30.681
1.0200	30.536
1.0160	30.580
1.0120	30.614
1.0080	30.305
1.0040	30.217
1.0000	30.108
0.99600	30.128
0.99200	30.193
0.98800	29.884
0.98400	29.731
0.98000	29.582
0.97600	29.688
0.97200	29.533
0.96800	29.554
0.96400	29.533
0.96000	29.290
0.95600	29.332
0.95200	29.279
0.94800	29.128
0.94400	29.233
0.94000	28.926
0.93600	28.926
0.93200	28.838
0.92800	28.776
0.92400	28.647
0.92000	28.600
0.91600	28.532
0.91200	28.372
0.90800	28.332
0.90400	28.345
0.90000	28.277
0.89600	28.149
0.89200	28.169
0.88800	27.904
0.88400	27.992
0.88000	28.004
0.87600	27.896
0.87200	27.650
0.86800	27.839
0.86400	27.830
0.86000	27.841
0.85600	27.732
0.85200	27.613
0.84800	27.384
0.84400	27.464
0.84000	27.424
0.83600	27.544
0.83200	27.354
0.82800	27.444
0.82400	27.374
0.82000	27.295
0.81600	27.236
0.81200	27.236
0.80800	27.079
0.80400	26.944
0.80000	26.887
0.79900	26.887
0.79800	26.887
0.79700	27.096
0.79600	26.743
0.79500	26.887
0.79400	26.672
0.79300	26.462
0.79200	26.440
0.79100	26.536
0.79000	26.505
0.78900	26.502
0.78800	26.549
0.78700	26.546
0.78600	26.471
0.78500	26.471
0.78400	26.568
0.78300	26.299
0.78200	26.256
0.78100	26.209
0.78000	26.274
0.77900	26.296
0.77800	26.203
0.77700	26.159
0.77600	26.116
0.77500	26.351
0.77400	25.995
0.77300	25.966
0.77200	25.984
0.77100	26.084
0.77000	26.181
0.76900	26.178
0.76800	26.016
0.76700	25.984
0.76600	26.171
0.76500	26.081
0.76400	26.103
0.76300	25.984
0.76200	25.706
0.76100	25.870
0.76000	25.770
0.75900	25.716
0.75800	25.737
0.75700	25.662
0.75600	25.522
0.75500	25.598
0.75400	25.522
0.75300	25.543
0.75200	25.598
0.75100	25.480
0.75000	25.598
0.74900	25.501
0.74800	25.245
0.74700	25.440
0.74600	25.413
0.74500	25.495
0.74400	25.537
0.74300	25.495
0.74200	25.431
0.74100	25.504
0.74000	25.526
0.73900	25.301
0.73800	25.301
0.73700	25.419
0.73600	25.398
0.73500	25.205
0.73400	25.038
0.73300	25.150
0.73200	25.061
0.73100	25.019
0.73000	25.171
0.72900	25.040
0.72800	24.830
0.72700	24.977
0.72600	24.839
0.72500	24.880
0.72400	24.880
0.72300	24.660
0.72200	24.756
0.72100	24.956
0.72000	24.763
0.71900	24.859
0.71800	24.845
0.71700	24.727
0.71600	24.478
0.71500	24.533
0.71400	24.677
0.71300	24.559
0.71200	24.572
0.71100	24.411
0.71000	24.411
0.70900	24.523
0.70800	24.175
0.70700	24.395
0.70600	24.454
0.70500	24.536
0.70400	24.438
0.70300	24.433
0.70200	24.397
0.70100	24.472
0.70000	24.354
0.69900	24.311
0.69800	24.112
0.69700	23.893
0.69600	24.066
0.69500	24.090
0.69400	24.156
0.69300	24.103
0.69200	24.103
0.69100	24.165
0.69000	23.945
0.68900	24.047
0.68800	24.086
0.68700	24.165
0.68600	24.165
0.68500	24.127
0.68400	23.986
0.68300	24.127
0.68200	24.089
0.68100	23.947
0.68000	23.986
0.67900	23.824
0.67800	23.824
0.67700	24.030
0.67600	23.687
0.67500	23.726
0.67400	23.647
0.67300	23.425
0.67200	23.425
0.67100	23.647
0.67000	23.626
0.66900	23.465
0.66800	23.628
0.66700	23.466
0.66600	23.425
0.66500	23.426
0.66400	23.385
0.66300	23.466
0.66200	23.548
0.66100	23.527
0.66000	23.365
0.65900	23.224
0.65800	23.386
0.65700	23.448
0.65600	23.407
0.65500	23.225
0.65400	23.204
0.65300	23.184
0.65200	23.142
0.65100	23.263
0.65000	23.203
0.64900	23.023
0.64800	23.023
0.64700	23.083
0.64600	23.103
0.64500	23.083
0.64400	22.922
0.64300	22.721
0.64200	22.962
0.64100	22.799
0.64000	22.799
0.63900	22.799
0.63800	22.697
0.63700	22.659
0.63600	22.538
0.63500	22.519
0.63400	22.639
0.63300	22.740
0.63200	22.558
0.63100	22.418
0.63000	22.535
0.62900	22.636
0.62800	22.535
0.62700	22.476
0.62600	22.476
0.62500	22.476
0.62400	22.293
0.62300	22.269
0.62200	22.168
0.62100	22.148
0.62000	22.168
0.61900	22.168
0.61800	22.187
0.61700	22.047
0.61600	22.231
0.61500	22.091
0.61400	21.990
0.61300	22.053
0.61200	21.971
0.61100	21.971
0.61000	21.971
0.60900	21.870
0.60800	21.870
0.60700	21.889
0.60600	21.724
0.60500	21.945
0.60400	21.945
0.60300	21.575
0.60200	21.753
0.60100	21.624
0.60000	21.568
0.59900	21.651
0.59800	21.624
0.59700	21.662
0.59600	21.532
0.59500	21.485
0.59400	21.447
0.59300	21.569
0.59200	21.325
0.59100	21.428
0.59000	21.270
0.58900	21.241
0.58800	21.363
0.58700	21.325
0.58600	21.222
0.58500	21.167
0.58400	21.222
0.58300	21.174
0.58200	20.858
0.58100	20.949
0.58000	21.119
0.57900	21.156
0.57800	21.119
0.57700	21.119
0.57600	21.119
0.57500	20.913
0.57400	20.752
0.57300	20.918
0.57200	20.876
0.57100	20.912
0.57000	20.948
0.56900	20.829
0.56800	20.811
0.56700	20.811
0.56600	20.626
0.56500	20.626
0.56400	20.524
0.56300	20.405
0.56200	20.304
0.56100	20.338
0.56000	20.187
0.55900	19.472
0.55800	20.404
0.55700	20.258
0.55600	20.160
0.55500	20.191
0.55400	20.095
0.55300	20.111
0.55200	20.173
0.55100	20.177
0.55000	20.078
0.54900	20.246
0.54800	20.146
0.54700	19.635
0.54600	19.733
0.54500	19.800
0.54400	19.687
0.54300	19.667
0.54200	19.585
0.54100	19.682
0.54000	19.569
0.53900	19.536
0.53800	19.601
0.53700	19.532
0.53600	19.567
0.53500	19.567
0.53400	19.616
0.53300	19.551
0.53200	19.585
0.53100	19.502
0.53000	19.451
0.52900	19.368
0.52800	19.285
0.52700	18.940
0.52600	18.992
0.52500	19.253
0.52400	19.133
0.52300	19.174
0.52200	19.159
0.52100	18.992
0.52000	18.872
0.51900	19.049
0.51800	18.712
0.51700	18.795
0.51600	18.871
0.51500	18.665
0.51400	18.508
0.51300	18.862
0.51200	18.856
0.51100	18.666
0.51000	18.560
0.50900	18.688
0.50800	18.373
0.50700	18.373
0.50600	18.187
0.50500	18.373
0.50400	18.416
0.50300	18.424
0.50200	18.369
0.50100	17.978
0.50000	18.091
0.49900	18.119
0.49800	18.259
0.49700	18.317
0.49600	17.866
0.49500	17.908
0.49400	17.921
0.49300	17.714
0.49200	17.907
0.49100	17.767
0.49000	17.809
0.48900	17.740
0.48800	17.726
0.48700	17.698
0.48600	17.714
0.48500	17.714
0.48400	17.810
0.48300	17.670
0.48200	17.767
0.48100	17.612
0.48000	17.572
0.47900	17.532
0.47800	17.293
0.47700	17.293
0.47600	17.121
0.47500	17.306
0.47400	17.095
0.47300	17.057
0.47200	17.254
0.47100	16.985
0.47000	16.960
0.46900	16.826
0.46800	16.826
0.46700	16.850
0.46600	16.728
0.46500	16.787
0.46400	16.593
0.46300	16.998
0.46200	16.754
0.46100	16.766
0.46000	16.547
0.45900	16.423
0.45800	16.711
0.45700	16.554
0.45600	16.524
0.45500	16.396
0.45400	16.512
0.45300	16.428
0.45200	16.349
0.45100	16.203
0.45000	16.156
0.44900	16.145
0.44800	16.145
0.44700	16.262
0.44600	16.062
0.44500	16.210
0.44400	15.797
0.44300	15.937
0.44200	16.004
0.44100	15.720
0.44000	15.868
0.43900	15.592
0.43800	15.760
0.43700	15.709
0.43600	15.696
0.43500	15.589
0.43400	15.506
0.43300	15.527
0.43200	15.399
0.43100	15.610
0.43000	15.523
0.42900	15.481
0.42800	15.050
0.42700	15.238
0.42600	15.218
0.42500	14.974
0.42400	14.895
0.42300	15.154
0.42200	15.002
0.42100	14.931
0.42000	15.212
0.41900	14.931
0.41800	14.588
0.41700	14.588
0.41600	14.796
0.41500	14.900
0.41400	14.697
0.41300	14.542
0.41200	14.748
0.41100	14.472
0.41000	14.526
0.40900	14.300
0.40800	14.125
0.40700	14.044
0.40600	14.148
0.40500	14.048
0.40400	13.947
0.40300	14.056
0.40200	14.156
0.40100	13.937
0.40000	13.967
0.0000	
