Name:  Black Shale 
Type:  Rocks
Class:  Sedimentary
Subclass:  Shale 
Particle Size:  0 - 75 Micrometers
File Name:  shale.4
Owner:  JHU
Wavelength Range:  All
Origin:  Sample No. 385,  The Hunt and Salisbury Collection at the U.S. 
Geological Survey, Denver, Co.
Description: This is very similar to shale.6, but with more clay in the 
matrix and fewer forams (mostly uniserial, some biserial and 
plani/trocho spiral types). There is possibly more quartz than 
carbonate in the groundmass, while again both opaques and 
carbonaceous material are present here.

Measurement:  Directional (10 Degree) Hemispherical Reflectance
First Column:  X
Second Column:  Y  
X Units:  Wavelength (micrometers)
Y Units:  Reflectance (percent)
First X Value: 14.0112
Last X Value:  0.4
Number of X Values: 2844
Additional Information:  None

14.983	3.2306
14.940	3.3858
14.897	3.5830
14.854	3.8026
14.812	4.0017
14.770	4.1170
14.728	4.1694
14.686	4.1734
14.645	4.1211
14.603	4.0131
14.562	3.8537
14.521	3.6519
14.481	3.4075
14.441	3.1518
14.400	2.9671
14.361	2.9188
14.321	3.0317
14.281	3.2901
14.242	3.5897
14.203	3.7936
14.164	3.8175
14.126	3.6500
14.087	3.3583
14.049	3.0748
14.011	2.9469
13.973	3.0410
13.936	3.2948
13.899	3.6020
13.861	3.8831
13.824	4.0749
13.788	4.1670
13.751	4.2167
13.715	4.2916
13.679	4.4176
13.643	4.5710
13.607	4.7157
13.571	4.8230
13.536	4.8673
13.500	4.8493
13.465	4.7941
13.430	4.7245
13.396	4.6615
13.361	4.6174
13.327	4.5933
13.293	4.5850
13.259	4.5843
13.225	4.5881
13.191	4.5968
13.158	4.6065
13.124	4.6056
13.091	4.5748
13.058	4.4976
13.026	4.3612
12.993	4.1554
12.960	3.8864
12.928	3.5844
12.896	3.2915
12.864	3.0452
12.832	2.8759
12.800	2.7999
12.769	2.8070
12.737	2.8586
12.706	2.9112
12.675	2.9285
12.644	2.8856
12.614	2.7750
12.583	2.6097
12.552	2.4207
12.522	2.2471
12.492	2.1280
12.462	2.1003
12.432	2.1801
12.402	2.3625
12.373	2.6258
12.343	2.9353
12.314	3.2510
12.285	3.5383
12.256	3.7763
12.227	3.9593
12.198	4.0893
12.169	4.1767
12.141	4.2385
12.113	4.2935
12.084	4.3598
12.056	4.4498
12.028	4.5705
12.000	4.7377
11.973	4.9556
11.945	5.1934
11.918	5.4108
11.890	5.5851
11.863	5.7146
11.836	5.8105
11.809	5.9036
11.782	6.0551
11.755	6.2924
11.729	6.5705
11.702	6.8338
11.676	7.0448
11.650	7.1689
11.624	7.1587
11.598	6.9745
11.572	6.6017
11.546	6.0341
11.520	5.2850
11.495	4.4296
11.469	3.5987
11.444	2.9230
11.419	2.4963
11.394	2.3665
11.369	2.5256
11.344	2.9190
11.319	3.4540
11.294	4.0273
11.270	4.5412
11.245	4.9175
11.221	5.1204
11.197	5.1590
11.173	5.0681
11.149	4.8971
11.125	4.6873
11.101	4.4675
11.077	4.2539
11.054	4.0543
11.030	3.8774
11.007	3.7320
10.983	3.6216
10.960	3.5456
10.937	3.4968
10.914	3.4686
10.891	3.4554
10.868	3.4504
10.846	3.4473
10.823	3.4409
10.800	3.4310
10.778	3.4215
10.755	3.4154
10.733	3.4170
10.711	3.4258
10.689	3.4390
10.667	3.4554
10.645	3.4705
10.623	3.4831
10.602	3.4966
10.580	3.5139
10.558	3.5347
10.537	3.5534
10.516	3.5662
10.494	3.5714
10.473	3.5617
10.452	3.5328
10.431	3.4864
10.410	3.4263
10.389	3.3545
10.368	3.2737
10.348	3.1909
10.327	3.1084
10.306	3.0244
10.286	2.9391
10.266	2.8536
10.245	2.7710
10.225	2.6940
10.205	2.6258
10.185	2.5716
10.165	2.5264
10.145	2.4833
10.125	2.4418
10.106	2.4030
10.086	2.3698
10.066	2.3457
10.047	2.3322
10.027	2.3277
10.008	2.3201
9.9887	2.3011
9.9695	2.2763
9.9504	2.2514
9.9313	2.2303
9.9123	2.2194
9.8934	2.2175
9.8746	2.2178
9.8558	2.2123
9.8371	2.2038
9.8185	2.2005
9.7999	2.2033
9.7814	2.2128
9.7630	2.2301
9.7447	2.2467
9.7264	2.2547
9.7082	2.2564
9.6900	2.2569
9.6719	2.2566
9.6539	2.2564
9.6360	2.2621
9.6181	2.2737
9.6003	2.2855
9.5825	2.2981
9.5649	2.3144
9.5472	2.3300
9.5297	2.3438
9.5122	2.3587
9.4948	2.3767
9.4774	2.3961
9.4601	2.4188
9.4429	2.4541
9.4257	2.5088
9.4086	2.5829
9.3916	2.6781
9.3746	2.7899
9.3577	2.9083
9.3408	3.0232
9.3240	3.1274
9.3073	3.2186
9.2906	3.2936
9.2740	3.3453
9.2574	3.3725
9.2409	3.3789
9.2245	3.3708
9.2081	3.3557
9.1918	3.3398
9.1755	3.3301
9.1593	3.3256
9.1431	3.3221
9.1270	3.3192
9.1110	3.3180
9.0950	3.3166
9.0791	3.3102
9.0632	3.2974
9.0474	3.2797
9.0316	3.2565
9.0159	3.2290
9.0003	3.1996
8.9847	3.1731
8.9691	3.1501
8.9536	3.1293
8.9382	3.1125
8.9228	3.1035
8.9075	3.1044
8.8922	3.1127
8.8770	3.1241
8.8618	3.1376
8.8467	3.1501
8.8316	3.1556
8.8166	3.1558
8.8016	3.1556
8.7867	3.1575
8.7718	3.1622
8.7570	3.1693
8.7422	3.1769
8.7275	3.1816
8.7129	3.1788
8.6982	3.1669
8.6837	3.1447
8.6692	3.1132
8.6547	3.0779
8.6403	3.0488
8.6259	3.0357
8.6116	3.0504
8.5973	3.0976
8.5830	3.1705
8.5688	3.2591
8.5547	3.3533
8.5406	3.4407
8.5266	3.5158
8.5126	3.5785
8.4986	3.6377
8.4847	3.6969
8.4708	3.7566
8.4570	3.8227
8.4432	3.9004
8.4295	3.9856
8.4158	4.0770
8.4022	4.1753
8.3886	4.2835
8.3750	4.4015
8.3615	4.5305
8.3481	4.6785
8.3347	4.8519
8.3213	5.0494
8.3079	5.2701
8.2946	5.5135
8.2814	5.7797
8.2682	6.0679
8.2550	6.3772
8.2419	6.7069
8.2288	7.0512
8.2158	7.3991
8.2028	7.7368
8.1898	8.0515
8.1769	8.3331
8.1640	8.5734
8.1512	8.7724
8.1384	8.9343
8.1256	9.0618
8.1129	9.1629
8.1002	9.2484
8.0876	9.3291
8.0750	9.4127
8.0624	9.5067
8.0499	9.6178
8.0374	9.7480
8.0250	9.8908
8.0126	10.039
8.0002	10.183
7.9879	10.315
7.9756	10.424
7.9634	10.505
7.9512	10.554
7.9390	10.577
7.9268	10.580
7.9147	10.570
7.9027	10.563
7.8906	10.569
7.8786	10.595
7.8667	10.636
7.8548	10.686
7.8429	10.740
7.8310	10.796
7.8192	10.859
7.8075	10.939
7.7957	11.047
7.7840	11.177
7.7723	11.322
7.7607	11.466
7.7491	11.595
7.7375	11.701
7.7260	11.783
7.7145	11.844
7.7031	11.885
7.6916	11.905
7.6802	11.902
7.6689	11.876
7.6575	11.827
7.6462	11.758
7.6350	11.679
7.6238	11.600
7.6126	11.532
7.6014	11.481
7.5903	11.451
7.5792	11.444
7.5681	11.454
7.5571	11.472
7.5461	11.490
7.5351	11.503
7.5242	11.504
7.5133	11.487
7.5024	11.452
7.4916	11.401
7.4807	11.333
7.4700	11.250
7.4592	11.155
7.4485	11.050
7.4378	10.938
7.4272	10.820
7.4165	10.697
7.4059	10.563
7.3954	10.411
7.3848	10.230
7.3743	10.010
7.3639	9.7462
7.3534	9.4418
7.3430	9.1060
7.3326	8.7480
7.3223	8.3781
7.3119	8.0060
7.3016	7.6413
7.2914	7.2899
7.2811	6.9626
7.2709	6.6668
7.2607	6.3969
7.2506	6.1385
7.2404	5.8775
7.2303	5.5983
7.2203	5.2961
7.2102	4.9769
7.2002	4.6586
7.1902	4.3593
7.1803	4.0910
7.1703	3.8644
7.1604	3.6853
7.1506	3.5558
7.1407	3.4779
7.1309	3.4450
7.1211	3.4442
7.1113	3.4561
7.1016	3.4601
7.0919	3.4438
7.0822	3.4009
7.0725	3.3363
7.0629	3.2602
7.0533	3.1790
7.0437	3.0999
7.0341	3.0260
7.0246	2.9564
7.0151	2.8894
7.0056	2.8205
6.9962	2.7485
6.9867	2.6753
6.9773	2.6019
6.9679	2.5342
6.9586	2.4788
6.9493	2.4371
6.9400	2.4072
6.9307	2.3845
6.9214	2.3651
6.9122	2.3464
6.9030	2.3236
6.8938	2.2976
6.8847	2.2737
6.8755	2.2531
6.8664	2.2348
6.8573	2.2194
6.8483	2.2081
6.8393	2.1977
6.8302	2.1868
6.8213	2.1787
6.8123	2.1773
6.8034	2.1832
6.7944	2.1943
6.7855	2.2100
6.7767	2.2313
6.7678	2.2552
6.7590	2.2798
6.7502	2.3049
6.7414	2.3293
6.7327	2.3513
6.7239	2.3717
6.7152	2.3918
6.7065	2.4158
6.6979	2.4463
6.6892	2.4830
6.6806	2.5285
6.6720	2.5820
6.6634	2.6419
6.6549	2.7101
6.6464	2.7857
6.6378	2.8676
6.6294	2.9566
6.6209	3.0495
6.6124	3.1442
6.6040	3.2363
6.5956	3.3258
6.5872	3.4180
6.5789	3.5141
6.5705	3.6145
6.5622	3.7216
6.5539	3.8350
6.5456	3.9536
6.5374	4.0723
6.5292	4.1926
6.5209	4.3176
6.5128	4.4483
6.5046	4.5876
6.4964	4.7456
6.4883	4.9386
6.4802	5.1782
6.4721	5.4683
6.4640	5.8006
6.4560	6.1461
6.4480	6.4729
6.4399	6.7535
6.4320	6.9747
6.4240	7.1388
6.4160	7.2589
6.4081	7.3586
6.4002	7.4479
6.3923	7.5156
6.3844	7.5549
6.3766	7.5599
6.3687	7.5234
6.3609	7.4410
6.3531	7.3162
6.3454	7.1656
6.3376	7.0017
6.3299	6.8293
6.3221	6.6619
6.3144	6.5134
6.3068	6.3914
6.2991	6.2967
6.2914	6.2273
6.2838	6.1818
6.2762	6.1494
6.2686	6.1141
6.2611	6.0689
6.2535	6.0116
6.2460	5.9455
6.2385	5.8766
6.2310	5.8098
6.2235	5.7494
6.2160	5.6964
6.2086	5.6516
6.2011	5.6196
6.1937	5.6035
6.1863	5.6080
6.1790	5.6360
6.1716	5.6855
6.1643	5.7544
6.1570	5.8389
6.1496	5.9306
6.1424	6.0234
6.1351	6.1110
6.1278	6.1930
6.1206	6.2735
6.1134	6.3554
6.1062	6.4435
6.0990	6.5409
6.0918	6.6413
6.0847	6.7331
6.0776	6.8132
6.0704	6.8897
6.0633	6.9716
6.0563	7.0637
6.0492	7.1753
6.0421	7.3171
6.0351	7.4758
6.0281	7.6300
6.0211	7.7716
6.0141	7.9009
6.0071	8.0141
6.0002	8.1062
5.9932	8.1855
5.9863	8.2684
5.9794	8.3511
5.9725	8.4238
5.9657	8.4884
5.9588	8.5514
5.9520	8.6170
5.9451	8.6940
5.9383	8.7953
5.9315	8.9384
5.9247	9.1174
5.9180	9.3099
5.9112	9.5029
5.9045	9.6910
5.8978	9.8726
5.8911	10.057
5.8844	10.249
5.8777	10.458
5.8711	10.683
5.8644	10.902
5.8578	11.102
5.8512	11.274
5.8446	11.418
5.8380	11.536
5.8314	11.639
5.8249	11.743
5.8184	11.864
5.8118	12.000
5.8053	12.137
5.7988	12.258
5.7923	12.353
5.7859	12.417
5.7794	12.456
5.7730	12.485
5.7666	12.528
5.7602	12.603
5.7538	12.708
5.7474	12.831
5.7410	12.963
5.7347	13.092
5.7283	13.212
5.7220	13.319
5.7157	13.419
5.7094	13.515
5.7031	13.606
5.6969	13.687
5.6906	13.754
5.6844	13.807
5.6782	13.846
5.6719	13.866
5.6657	13.863
5.6596	13.830
5.6534	13.764
5.6472	13.665
5.6411	13.539
5.6349	13.391
5.6288	13.214
5.6227	12.989
5.6166	12.660
5.6106	12.151
5.6045	11.415
5.5984	10.455
5.5924	9.3246
5.5864	8.1460
5.5804	7.0986
5.5744	6.3711
5.5684	6.0850
5.5624	6.2766
5.5564	6.9141
5.5505	7.8881
5.5445	9.0206
5.5386	10.126
5.5327	11.077
5.5268	11.820
5.5209	12.358
5.5151	12.739
5.5092	13.040
5.5033	13.326
5.4975	13.626
5.4917	13.945
5.4859	14.283
5.4801	14.639
5.4743	15.001
5.4685	15.357
5.4628	15.694
5.4570	15.993
5.4513	16.235
5.4455	16.411
5.4398	16.523
5.4341	16.575
5.4284	16.574
5.4228	16.526
5.4171	16.439
5.4114	16.307
5.4058	16.117
5.4002	15.872
5.3945	15.581
5.3889	15.263
5.3833	14.942
5.3778	14.642
5.3722	14.382
5.3666	14.172
5.3611	14.018
5.3555	13.920
5.3500	13.882
5.3445	13.900
5.3390	13.964
5.3335	14.061
5.3280	14.178
5.3225	14.305
5.3171	14.441
5.3116	14.584
5.3062	14.738
5.3008	14.910
5.2954	15.103
5.2900	15.317
5.2846	15.552
5.2792	15.810
5.2738	16.091
5.2684	16.392
5.2631	16.713
5.2578	17.051
5.2524	17.410
5.2471	17.784
5.2418	18.163
5.2365	18.539
5.2312	18.900
5.2260	19.235
5.2207	19.535
5.2154	19.795
5.2102	20.015
5.2050	20.194
5.1998	20.332
5.1945	20.433
5.1893	20.504
5.1842	20.556
5.1790	20.599
5.1738	20.636
5.1686	20.673
5.1635	20.706
5.1584	20.735
5.1532	20.759
5.1481	20.780
5.1430	20.805
5.1379	20.837
5.1328	20.877
5.1277	20.918
5.1227	20.949
5.1176	20.960
5.1126	20.947
5.1075	20.912
5.1025	20.868
5.0975	20.826
5.0925	20.794
5.0875	20.768
5.0825	20.743
5.0775	20.718
5.0726	20.692
5.0676	20.669
5.0627	20.660
5.0577	20.667
5.0528	20.688
5.0479	20.711
5.0430	20.732
5.0380	20.744
5.0332	20.747
5.0283	20.746
5.0234	20.748
5.0185	20.760
5.0137	20.784
5.0088	20.825
5.0040	20.886
4.9992	20.971
4.9944	21.083
4.9896	21.226
4.9848	21.399
4.9800	21.601
4.9752	21.829
4.9704	22.076
4.9657	22.328
4.9609	22.570
4.9562	22.788
4.9514	22.973
4.9467	23.120
4.9420	23.237
4.9373	23.339
4.9326	23.443
4.9279	23.564
4.9232	23.714
4.9186	23.898
4.9139	24.113
4.9092	24.347
4.9046	24.589
4.9000	24.829
4.8953	25.058
4.8907	25.267
4.8861	25.455
4.8815	25.619
4.8769	25.760
4.8723	25.878
4.8678	25.978
4.8632	26.067
4.8586	26.150
4.8541	26.229
4.8495	26.305
4.8450	26.378
4.8405	26.444
4.8360	26.501
4.8315	26.550
4.8270	26.595
4.8225	26.635
4.8180	26.672
4.8135	26.708
4.8090	26.743
4.8046	26.777
4.8001	26.812
4.7957	26.848
4.7913	26.881
4.7868	26.912
4.7824	26.942
4.7780	26.969
4.7736	26.995
4.7692	27.022
4.7648	27.048
4.7605	27.070
4.7561	27.087
4.7517	27.101
4.7474	27.111
4.7431	27.119
4.7387	27.124
4.7344	27.124
4.7301	27.111
4.7258	27.079
4.7215	27.024
4.7172	26.945
4.7129	26.845
4.7086	26.731
4.7043	26.609
4.7000	26.488
4.6958	26.376
4.6915	26.278
4.6873	26.197
4.6831	26.138
4.6788	26.104
4.6746	26.094
4.6704	26.107
4.6662	26.145
4.6620	26.210
4.6578	26.300
4.6536	26.409
4.6495	26.537
4.6453	26.678
4.6411	26.822
4.6370	26.959
4.6328	27.088
4.6287	27.205
4.6246	27.308
4.6205	27.399
4.6163	27.479
4.6122	27.550
4.6081	27.611
4.6040	27.664
4.6000	27.709
4.5959	27.750
4.5918	27.792
4.5877	27.833
4.5837	27.872
4.5796	27.909
4.5756	27.943
4.5716	27.973
4.5675	27.999
4.5635	28.023
4.5595	28.046
4.5555	28.065
4.5515	28.079
4.5475	28.089
4.5435	28.095
4.5395	28.098
4.5356	28.098
4.5316	28.098
4.5276	28.100
4.5237	28.103
4.5197	28.104
4.5158	28.104
4.5119	28.098
4.5080	28.091
4.5040	28.082
4.5001	28.076
4.4962	28.075
4.4923	28.080
4.4884	28.090
4.4846	28.104
4.4807	28.121
4.4768	28.139
4.4730	28.160
4.4691	28.186
4.4652	28.215
4.4614	28.248
4.4576	28.282
4.4537	28.317
4.4499	28.353
4.4461	28.390
4.4423	28.430
4.4385	28.470
4.4347	28.510
4.4309	28.547
4.4271	28.583
4.4233	28.619
4.4196	28.656
4.4158	28.695
4.4120	28.735
4.4083	28.773
4.4045	28.808
4.4008	28.840
4.3971	28.872
4.3934	28.906
4.3896	28.944
4.3859	28.984
4.3822	29.022
4.3785	29.056
4.3748	29.083
4.3711	29.102
4.3674	29.116
4.3638	29.126
4.3601	29.131
4.3564	29.131
4.3528	29.131
4.3491	29.131
4.3455	29.133
4.3418	29.138
4.3382	29.147
4.3346	29.156
4.3310	29.161
4.3273	29.163
4.3237	29.163
4.3201	29.163
4.3165	29.166
4.3129	29.171
4.3094	29.184
4.3058	29.199
4.3022	29.213
4.2986	29.223
4.2951	29.225
4.2915	29.221
4.2880	29.213
4.2844	29.204
4.2809	29.199
4.2774	29.197
4.2738	29.197
4.2703	29.199
4.2668	29.204
4.2633	29.215
4.2598	29.233
4.2563	29.257
4.2528	29.284
4.2493	29.309
4.2458	29.331
4.2424	29.346
4.2389	29.355
4.2354	29.358
4.2320	29.357
4.2285	29.356
4.2251	29.358
4.2216	29.364
4.2182	29.374
4.2148	29.386
4.2113	29.397
4.2079	29.402
4.2045	29.401
4.2011	29.394
4.1977	29.387
4.1943	29.382
4.1909	29.379
4.1875	29.378
4.1841	29.378
4.1808	29.377
4.1774	29.374
4.1740	29.368
4.1707	29.361
4.1673	29.352
4.1640	29.342
4.1606	29.329
4.1573	29.314
4.1540	29.297
4.1506	29.280
4.1473	29.262
4.1440	29.246
4.1407	29.231
4.1374	29.215
4.1341	29.196
4.1308	29.173
4.1275	29.145
4.1242	29.115
4.1209	29.083
4.1177	29.051
4.1144	29.019
4.1111	28.988
4.1079	28.956
4.1046	28.920
4.1014	28.881
4.0981	28.837
4.0949	28.787
4.0917	28.730
4.0884	28.666
4.0852	28.596
4.0820	28.516
4.0788	28.426
4.0756	28.330
4.0724	28.229
4.0692	28.122
4.0660	28.006
4.0628	27.879
4.0596	27.729
4.0565	27.546
4.0533	27.317
4.0501	27.034
4.0470	26.690
4.0438	26.287
4.0406	25.836
4.0375	25.354
4.0344	24.860
4.0312	24.374
4.0281	23.899
4.0250	23.425
4.0218	22.925
4.0187	22.365
4.0156	21.710
4.0125	20.944
4.0094	20.072
4.0063	19.118
4.0032	18.126
4.0001	17.142
3.9970	16.210
3.9940	15.370
3.9909	14.652
3.9878	14.078
3.9847	13.656
3.9817	13.383
3.9786	13.246
3.9756	13.219
3.9725	13.280
3.9695	13.420
3.9665	13.639
3.9634	13.944
3.9604	14.340
3.9574	14.831
3.9544	15.414
3.9513	16.074
3.9483	16.777
3.9453	17.482
3.9423	18.142
3.9393	18.712
3.9363	19.161
3.9333	19.490
3.9304	19.726
3.9274	19.912
3.9244	20.082
3.9214	20.257
3.9185	20.442
3.9155	20.631
3.9126	20.811
3.9096	20.974
3.9067	21.118
3.9037	21.248
3.9008	21.360
3.8979	21.456
3.8949	21.539
3.8920	21.614
3.8891	21.683
3.8862	21.749
3.8833	21.815
3.8804	21.881
3.8775	21.949
3.8746	22.019
3.8717	22.095
3.8688	22.178
3.8659	22.266
3.8630	22.358
3.8601	22.452
3.8573	22.545
3.8544	22.638
3.8515	22.732
3.8487	22.829
3.8458	22.935
3.8430	23.058
3.8401	23.202
3.8373	23.372
3.8344	23.566
3.8316	23.778
3.8288	23.997
3.8259	24.215
3.8231	24.427
3.8203	24.634
3.8175	24.836
3.8147	25.038
3.8119	25.251
3.8091	25.481
3.8063	25.731
3.8035	26.000
3.8007	26.285
3.7979	26.572
3.7951	26.847
3.7924	27.099
3.7896	27.323
3.7868	27.515
3.7841	27.674
3.7813	27.804
3.7785	27.911
3.7758	28.000
3.7730	28.074
3.7703	28.141
3.7676	28.204
3.7648	28.261
3.7621	28.312
3.7594	28.354
3.7566	28.388
3.7539	28.411
3.7512	28.428
3.7485	28.442
3.7458	28.458
3.7431	28.475
3.7404	28.492
3.7377	28.506
3.7350	28.514
3.7323	28.513
3.7296	28.507
3.7269	28.499
3.7242	28.489
3.7216	28.476
3.7189	28.462
3.7162	28.449
3.7136	28.436
3.7109	28.421
3.7083	28.405
3.7056	28.387
3.7030	28.366
3.7003	28.340
3.6977	28.312
3.6950	28.283
3.6924	28.254
3.6898	28.226
3.6872	28.196
3.6845	28.162
3.6819	28.122
3.6793	28.077
3.6767	28.025
3.6741	27.971
3.6715	27.920
3.6689	27.878
3.6663	27.843
3.6637	27.816
3.6611	27.796
3.6585	27.778
3.6560	27.758
3.6534	27.733
3.6508	27.705
3.6482	27.675
3.6457	27.642
3.6431	27.606
3.6406	27.567
3.6380	27.524
3.6355	27.477
3.6329	27.425
3.6304	27.370
3.6278	27.314
3.6253	27.256
3.6227	27.194
3.6202	27.130
3.6177	27.063
3.6152	26.994
3.6127	26.922
3.6101	26.846
3.6076	26.765
3.6051	26.678
3.6026	26.587
3.6001	26.496
3.5976	26.407
3.5951	26.319
3.5926	26.226
3.5901	26.124
3.5876	26.010
3.5852	25.885
3.5827	25.752
3.5802	25.618
3.5777	25.487
3.5753	25.365
3.5728	25.249
3.5704	25.134
3.5679	25.018
3.5654	24.900
3.5630	24.779
3.5605	24.652
3.5581	24.521
3.5557	24.393
3.5532	24.265
3.5508	24.132
3.5484	23.993
3.5459	23.841
3.5435	23.669
3.5411	23.466
3.5387	23.230
3.5363	22.960
3.5338	22.650
3.5314	22.292
3.5290	21.884
3.5266	21.425
3.5242	20.921
3.5218	20.392
3.5195	19.858
3.5171	19.346
3.5147	18.871
3.5123	18.445
3.5099	18.075
3.5075	17.758
3.5052	17.493
3.5028	17.278
3.5004	17.102
3.4981	16.952
3.4957	16.816
3.4934	16.683
3.4910	16.541
3.4887	16.386
3.4863	16.224
3.4840	16.071
3.4816	15.948
3.4793	15.886
3.4770	15.911
3.4746	16.042
3.4723	16.267
3.4700	16.557
3.4677	16.866
3.4653	17.147
3.4630	17.361
3.4607	17.492
3.4584	17.545
3.4561	17.539
3.4538	17.492
3.4515	17.425
3.4492	17.352
3.4469	17.273
3.4446	17.187
3.4423	17.091
3.4400	16.979
3.4378	16.847
3.4355	16.690
3.4332	16.512
3.4309	16.316
3.4287	16.107
3.4264	15.903
3.4241	15.725
3.4219	15.588
3.4196	15.508
3.4174	15.492
3.4151	15.538
3.4129	15.631
3.4106	15.753
3.4084	15.891
3.4061	16.029
3.4039	16.151
3.4017	16.247
3.3994	16.304
3.3972	16.319
3.3950	16.290
3.3928	16.227
3.3906	16.152
3.3883	16.088
3.3861	16.050
3.3839	16.047
3.3817	16.078
3.3795	16.140
3.3773	16.223
3.3751	16.317
3.3729	16.416
3.3707	16.513
3.3685	16.596
3.3663	16.654
3.3641	16.679
3.3620	16.668
3.3598	16.624
3.3576	16.558
3.3554	16.487
3.3533	16.442
3.3511	16.457
3.3489	16.560
3.3468	16.760
3.3446	17.048
3.3425	17.392
3.3403	17.748
3.3382	18.067
3.3360	18.320
3.3339	18.500
3.3317	18.615
3.3296	18.677
3.3274	18.700
3.3253	18.701
3.3232	18.687
3.3210	18.659
3.3189	18.626
3.3168	18.598
3.3147	18.576
3.3126	18.564
3.3104	18.565
3.3083	18.578
3.3062	18.601
3.3041	18.630
3.3020	18.663
3.2999	18.693
3.2978	18.716
3.2957	18.731
3.2936	18.740
3.2915	18.747
3.2894	18.752
3.2874	18.758
3.2853	18.764
3.2832	18.763
3.2811	18.756
3.2790	18.743
3.2770	18.732
3.2749	18.731
3.2728	18.744
3.2708	18.772
3.2687	18.811
3.2666	18.854
3.2646	18.896
3.2625	18.936
3.2605	18.975
3.2584	19.013
3.2564	19.045
3.2543	19.074
3.2523	19.101
3.2503	19.126
3.2482	19.150
3.2462	19.171
3.2442	19.187
3.2421	19.195
3.2401	19.192
3.2381	19.183
3.2361	19.170
3.2340	19.157
3.2320	19.143
3.2300	19.124
3.2280	19.097
3.2260	19.065
3.2240	19.028
3.2220	18.989
3.2200	18.952
3.2180	18.914
3.2160	18.876
3.2140	18.833
3.2120	18.785
3.2100	18.739
3.2080	18.694
3.2060	18.649
3.2040	18.607
3.2021	18.564
3.2001	18.517
3.1981	18.468
3.1961	18.419
3.1942	18.372
3.1922	18.325
3.1902	18.279
3.1883	18.233
3.1863	18.187
3.1844	18.140
3.1824	18.096
3.1805	18.055
3.1785	18.012
3.1766	17.962
3.1746	17.903
3.1727	17.836
3.1707	17.767
3.1688	17.705
3.1669	17.651
3.1649	17.603
3.1630	17.553
3.1611	17.497
3.1591	17.431
3.1572	17.359
3.1553	17.290
3.1534	17.232
3.1515	17.183
3.1495	17.139
3.1476	17.094
3.1457	17.048
3.1438	16.996
3.1419	16.940
3.1400	16.883
3.1381	16.828
3.1362	16.771
3.1343	16.709
3.1324	16.642
3.1305	16.574
3.1286	16.504
3.1268	16.434
3.1249	16.369
3.1230	16.311
3.1211	16.254
3.1192	16.192
3.1174	16.123
3.1155	16.052
3.1136	15.979
3.1117	15.912
3.1099	15.856
3.1080	15.812
3.1061	15.768
3.1043	15.713
3.1024	15.644
3.1006	15.564
3.0987	15.485
3.0969	15.414
3.0950	15.358
3.0932	15.313
3.0913	15.269
3.0895	15.217
3.0876	15.157
3.0858	15.092
3.0840	15.029
3.0821	14.970
3.0803	14.917
3.0785	14.870
3.0766	14.827
3.0748	14.784
3.0730	14.741
3.0712	14.696
3.0694	14.645
3.0675	14.585
3.0657	14.520
3.0639	14.463
3.0621	14.412
3.0603	14.373
3.0585	14.344
3.0567	14.321
3.0549	14.298
3.0531	14.266
3.0513	14.229
3.0495	14.190
3.0477	14.148
3.0459	14.108
3.0441	14.068
3.0423	14.034
3.0406	14.002
3.0388	13.970
3.0370	13.939
3.0352	13.910
3.0334	13.886
3.0317	13.865
3.0299	13.844
3.0281	13.819
3.0264	13.789
3.0246	13.757
3.0228	13.726
3.0211	13.701
3.0193	13.688
3.0176	13.687
3.0158	13.690
3.0140	13.690
3.0123	13.685
3.0105	13.679
3.0088	13.670
3.0070	13.661
3.0053	13.657
3.0036	13.662
3.0018	13.674
3.0001	13.692
2.9984	13.719
2.9966	13.755
2.9949	13.794
2.9932	13.830
2.9914	13.863
2.9897	13.891
2.9880	13.917
2.9863	13.944
2.9845	13.973
2.9828	14.002
2.9811	14.028
2.9794	14.052
2.9777	14.072
2.9760	14.091
2.9743	14.116
2.9726	14.142
2.9709	14.165
2.9692	14.179
2.9675	14.181
2.9658	14.178
2.9641	14.175
2.9624	14.180
2.9607	14.194
2.9590	14.215
2.9573	14.236
2.9556	14.250
2.9539	14.258
2.9523	14.267
2.9506	14.281
2.9489	14.299
2.9472	14.318
2.9455	14.338
2.9439	14.355
2.9422	14.365
2.9405	14.369
2.9389	14.370
2.9372	14.371
2.9355	14.373
2.9339	14.378
2.9322	14.387
2.9306	14.400
2.9289	14.413
2.9272	14.425
2.9256	14.436
2.9239	14.450
2.9223	14.465
2.9207	14.482
2.9190	14.503
2.9174	14.526
2.9157	14.548
2.9141	14.565
2.9124	14.577
2.9108	14.588
2.9092	14.596
2.9075	14.609
2.9059	14.630
2.9043	14.655
2.9027	14.684
2.9010	14.713
2.8994	14.739
2.8978	14.763
2.8962	14.789
2.8946	14.821
2.8929	14.854
2.8913	14.882
2.8897	14.907
2.8881	14.927
2.8865	14.941
2.8849	14.957
2.8833	14.979
2.8817	15.004
2.8801	15.028
2.8785	15.052
2.8769	15.078
2.8753	15.101
2.8737	15.122
2.8721	15.142
2.8705	15.159
2.8689	15.168
2.8673	15.170
2.8658	15.173
2.8642	15.179
2.8626	15.188
2.8610	15.200
2.8594	15.210
2.8579	15.213
2.8563	15.206
2.8547	15.192
2.8531	15.177
2.8516	15.167
2.8500	15.160
2.8484	15.154
2.8469	15.145
2.8453	15.131
2.8437	15.110
2.8422	15.083
2.8406	15.053
2.8391	15.024
2.8375	14.996
2.8360	14.971
2.8344	14.946
2.8329	14.918
2.8313	14.886
2.8298	14.845
2.8282	14.794
2.8267	14.739
2.8252	14.684
2.8236	14.632
2.8221	14.575
2.8205	14.509
2.8190	14.435
2.8175	14.356
2.8159	14.272
2.8144	14.187
2.8129	14.104
2.8114	14.018
2.8098	13.922
2.8083	13.814
2.8068	13.700
2.8053	13.592
2.8038	13.488
2.8022	13.385
2.8007	13.280
2.7992	13.165
2.7977	13.030
2.7962	12.864
2.7947	12.666
2.7932	12.442
2.7917	12.193
2.7902	11.914
2.7887	11.615
2.7872	11.305
2.7857	10.988
2.7842	10.661
2.7827	10.333
2.7812	10.015
2.7797	9.7054
2.7782	9.4021
2.7767	9.1084
2.7752	8.8268
2.7738	8.5517
2.7723	8.2779
2.7708	8.0131
2.7693	7.7678
2.7678	7.5438
2.7664	7.3470
2.7649	7.1826
2.7634	7.0474
2.7619	6.9311
2.7605	6.8276
2.7590	6.7433
2.7575	6.6860
2.7561	6.6574
2.7546	6.6652
2.7531	6.7168
2.7517	6.8094
2.7502	6.9304
2.7488	7.0666
2.7473	7.2115
2.7458	7.3567
2.7444	7.4924
2.7429	7.6214
2.7415	7.7562
2.7400	7.9078
2.7386	8.0811
2.7371	8.2786
2.7357	8.5064
2.7343	8.7664
2.7328	9.0570
2.7314	9.3829
2.7299	9.7549
2.7285	10.180
2.7271	10.662
2.7256	11.209
2.7242	11.833
2.7228	12.543
2.7213	13.335
2.7199	14.200
2.7185	15.114
2.7171	16.037
2.7156	16.938
2.7142	17.799
2.7128	18.617
2.7114	19.401
2.7100	20.163
2.7085	20.901
2.7071	21.595
2.7057	22.229
2.7043	22.796
2.7029	23.298
2.7015	23.741
2.7001	24.139
2.6987	24.507
2.6973	24.851
2.6959	25.180
2.6945	25.503
2.6931	25.829
2.6917	26.154
2.6903	26.458
2.6889	26.731
2.6875	26.962
2.6861	27.154
2.6847	27.307
2.6833	27.423
2.6819	27.511
2.6805	27.586
2.6791	27.653
2.6778	27.713
2.6764	27.770
2.6750	27.830
2.6736	27.873
2.6722	27.879
2.6709	27.860
2.6695	27.852
2.6681	27.870
2.6667	27.914
2.6654	28.003
2.6640	28.137
2.6626	28.284
2.6613	28.408
2.6599	28.501
2.6585	28.567
2.6572	28.600
2.6558	28.606
2.6545	28.611
2.6531	28.622
2.6517	28.639
2.6504	28.658
2.6490	28.675
2.6477	28.688
2.6463	28.697
2.6450	28.706
2.6436	28.721
2.6423	28.735
2.6409	28.750
2.6396	28.769
2.6382	28.779
2.6369	28.769
2.6356	28.740
2.6342	28.694
2.6329	28.639
2.6315	28.581
2.6302	28.547
2.6289	28.558
2.6275	28.593
2.6262	28.637
2.6249	28.680
2.6236	28.693
2.6222	28.666
2.6209	28.609
2.6196	28.559
2.6183	28.539
2.6169	28.542
2.6156	28.580
2.6143	28.644
2.6130	28.691
2.6117	28.700
2.6103	28.666
2.6090	28.605
2.6077	28.533
2.6064	28.472
2.6051	28.462
2.6038	28.518
2.6025	28.601
2.6012	28.661
2.5999	28.670
2.5986	28.618
2.5973	28.520
2.5960	28.420
2.5947	28.374
2.5934	28.419
2.5921	28.520
2.5908	28.622
2.5895	28.691
2.5882	28.706
2.5869	28.678
2.5856	28.635
2.5843	28.602
2.5830	28.608
2.5817	28.646
2.5805	28.691
2.5792	28.728
2.5779	28.744
2.5766	28.741
2.5753	28.726
2.5741	28.701
2.5728	28.691
2.5715	28.703
2.5702	28.721
2.5690	28.733
2.5677	28.724
2.5664	28.694
2.5651	28.649
2.5639	28.606
2.5626	28.588
2.5613	28.603
2.5601	28.643
2.5588	28.688
2.5575	28.721
2.5563	28.733
2.5550	28.721
2.5538	28.694
2.5525	28.668
2.5513	28.649
2.5500	28.637
2.5487	28.623
2.5475	28.605
2.5462	28.584
2.5450	28.559
2.5437	28.534
2.5425	28.517
2.5413	28.507
2.5400	28.496
2.5388	28.479
2.5375	28.459
2.5363	28.439
2.5350	28.425
2.5338	28.421
2.5326	28.431
2.5313	28.452
2.5301	28.475
2.5289	28.491
2.5276	28.504
2.5264	28.516
2.5252	28.528
2.5239	28.539
2.5227	28.547
2.5215	28.554
2.5202	28.557
2.5190	28.554
2.5178	28.549
2.5166	28.548
2.5154	28.552
2.5141	28.558
2.5129	28.565
2.5117	28.572
2.5105	28.577
2.5093	28.577
2.5081	28.570
2.5068	28.559
2.5056	28.542
2.5044	28.526
2.5032	28.512
2.5020	28.505
2.5008	28.507
2.4996	28.515
2.4984	28.526
2.4972	28.533
2.4960	28.534
2.4948	28.530
2.4936	28.527
2.4924	28.527
2.4912	28.529
2.4900	28.536
2.4888	28.545
2.4876	28.553
2.4864	28.554
2.4852	28.550
2.4840	28.545
2.4828	28.538
2.4816	28.530
2.4805	28.522
2.4793	28.523
2.4781	28.527
2.4769	28.532
2.4757	28.539
2.4745	28.544
2.4734	28.546
2.4722	28.545
2.4710	28.548
2.4698	28.559
2.4686	28.571
2.4675	28.577
2.4663	28.575
2.4651	28.562
2.4640	28.538
2.4628	28.511
2.4616	28.491
2.4604	28.481
2.4593	28.483
2.4581	28.489
2.4569	28.499
2.4558	28.510
2.4546	28.517
2.4535	28.518
2.4523	28.515
2.4511	28.510
2.4500	28.504
2.4488	28.496
2.4477	28.490
2.4465	28.486
2.4454	28.478
2.4442	28.471
2.4431	28.468
2.4419	28.469
2.4408	28.475
2.4396	28.483
2.4385	28.493
2.4373	28.502
2.4362	28.508
2.4350	28.513
2.4339	28.518
2.4327	28.523
2.4316	28.528
2.4305	28.527
2.4293	28.522
2.4282	28.518
2.4270	28.518
2.4259	28.524
2.4248	28.539
2.4236	28.560
2.4225	28.581
2.4214	28.592
2.4202	28.592
2.4191	28.583
2.4180	28.572
2.4169	28.565
2.4157	28.567
2.4146	28.574
2.4135	28.583
2.4124	28.588
2.4112	28.587
2.4101	28.582
2.4090	28.579
2.4079	28.585
2.4068	28.598
2.4056	28.612
2.4045	28.624
2.4034	28.631
2.4023	28.631
2.4012	28.627
2.4001	28.623
2.3990	28.619
2.3979	28.613
2.3967	28.604
2.3956	28.596
2.3945	28.590
2.3934	28.586
2.3923	28.587
2.3912	28.591
2.3901	28.596
2.3890	28.595
2.3879	28.587
2.3868	28.575
2.3857	28.558
2.3846	28.538
2.3835	28.519
2.3824	28.506
2.3813	28.497
2.3802	28.496
2.3791	28.501
2.3781	28.510
2.3770	28.522
2.3759	28.530
2.3748	28.532
2.3737	28.530
2.3726	28.527
2.3715	28.525
2.3704	28.524
2.3694	28.527
2.3683	28.529
2.3672	28.523
2.3661	28.505
2.3650	28.480
2.3640	28.454
2.3629	28.424
2.3618	28.396
2.3607	28.376
2.3597	28.362
2.3586	28.349
2.3575	28.334
2.3564	28.318
2.3554	28.300
2.3543	28.279
2.3532	28.260
2.3522	28.245
2.3511	28.231
2.3500	28.220
2.3490	28.212
2.3479	28.203
2.3468	28.196
2.3458	28.194
2.3447	28.195
2.3436	28.196
2.3426	28.197
2.3415	28.201
2.3405	28.205
2.3394	28.207
2.3384	28.208
2.3373	28.210
2.3363	28.211
2.3352	28.211
2.3342	28.212
2.3331	28.216
2.3321	28.222
2.3310	28.233
2.3300	28.251
2.3289	28.273
2.3279	28.296
2.3268	28.322
2.3258	28.348
2.3247	28.368
2.3237	28.375
2.3226	28.373
2.3216	28.365
2.3206	28.347
2.3195	28.328
2.3185	28.320
2.3175	28.322
2.3164	28.326
2.3154	28.329
2.3144	28.332
2.3133	28.333
2.3123	28.333
2.3113	28.340
2.3102	28.356
2.3092	28.374
2.3082	28.388
2.3071	28.395
2.3061	28.397
2.3051	28.394
2.3041	28.392
2.3030	28.397
2.3020	28.404
2.3010	28.403
2.3000	28.395
2.2990	28.390
2.2979	28.388
2.2969	28.391
2.2959	28.403
2.2949	28.421
2.2939	28.433
2.2929	28.430
2.2918	28.422
2.2908	28.419
2.2898	28.419
2.2888	28.428
2.2878	28.447
2.2868	28.470
2.2858	28.484
2.2848	28.485
2.2838	28.475
2.2828	28.456
2.2818	28.432
2.2808	28.415
2.2798	28.411
2.2787	28.420
2.2777	28.433
2.2767	28.446
2.2757	28.454
2.2747	28.452
2.2738	28.444
2.2728	28.436
2.2718	28.434
2.2708	28.434
2.2698	28.434
2.2688	28.431
2.2678	28.424
2.2668	28.412
2.2658	28.400
2.2648	28.392
2.2638	28.388
2.2628	28.388
2.2618	28.392
2.2609	28.393
2.2599	28.389
2.2589	28.379
2.2579	28.366
2.2569	28.346
2.2559	28.323
2.2550	28.306
2.2540	28.300
2.2530	28.298
2.2520	28.299
2.2510	28.305
2.2501	28.312
2.2491	28.312
2.2481	28.306
2.2471	28.298
2.2462	28.285
2.2452	28.266
2.2442	28.244
2.2433	28.224
2.2423	28.210
2.2413	28.201
2.2403	28.199
2.2394	28.204
2.2384	28.211
2.2374	28.218
2.2365	28.224
2.2355	28.226
2.2345	28.217
2.2336	28.196
2.2326	28.171
2.2317	28.145
2.2307	28.118
2.2297	28.094
2.2288	28.082
2.2278	28.077
2.2269	28.074
2.2259	28.074
2.2250	28.079
2.2240	28.079
2.2231	28.068
2.2221	28.047
2.2211	28.021
2.2202	27.992
2.2192	27.963
2.2183	27.942
2.2173	27.927
2.2164	27.913
2.2155	27.899
2.2145	27.884
2.2136	27.870
2.2126	27.855
2.2117	27.842
2.2107	27.830
2.2098	27.819
2.2088	27.812
2.2079	27.812
2.2070	27.819
2.2060	27.831
2.2051	27.842
2.2041	27.846
2.2032	27.842
2.2023	27.833
2.2013	27.820
2.2004	27.804
2.1995	27.790
2.1985	27.783
2.1976	27.782
2.1967	27.788
2.1957	27.801
2.1948	27.822
2.1939	27.845
2.1930	27.862
2.1920	27.872
2.1911	27.882
2.1902	27.894
2.1893	27.901
2.1883	27.908
2.1874	27.918
2.1865	27.929
2.1856	27.941
2.1846	27.956
2.1837	27.975
2.1828	27.991
2.1819	27.996
2.1810	27.996
2.1800	27.992
2.1791	27.987
2.1782	27.987
2.1773	27.991
2.1764	27.994
2.1755	27.991
2.1746	27.988
2.1736	27.988
2.1727	27.993
2.1718	28.001
2.1709	28.010
2.1700	28.016
2.1691	28.013
2.1682	28.006
2.1673	28.004
2.1664	28.011
2.1655	28.025
2.1646	28.041
2.1637	28.050
2.1628	28.049
2.1619	28.038
2.1610	28.023
2.1601	28.008
2.1592	27.997
2.1583	27.995
2.1574	27.999
2.1565	27.999
2.1556	27.999
2.1547	28.003
2.1538	28.004
2.1529	28.004
2.1520	28.007
2.1511	28.016
2.1502	28.023
2.1493	28.019
2.1484	28.011
2.1475	28.003
2.1466	27.988
2.1458	27.973
2.1449	27.961
2.1440	27.952
2.1431	27.944
2.1422	27.933
2.1413	27.927
2.1404	27.929
2.1396	27.937
2.1387	27.950
2.1378	27.960
2.1369	27.966
2.1360	27.970
2.1352	27.970
2.1343	27.966
2.1334	27.959
2.1325	27.950
2.1316	27.938
2.1308	27.921
2.1299	27.906
2.1290	27.898
2.1281	27.890
2.1273	27.882
2.1264	27.876
2.1255	27.875
2.1247	27.878
2.1238	27.881
2.1229	27.891
2.1220	27.900
2.1212	27.899
2.1203	27.890
2.1194	27.880
2.1186	27.870
2.1177	27.859
2.1168	27.848
2.1160	27.841
2.1151	27.834
2.1143	27.824
2.1134	27.817
2.1125	27.813
2.1117	27.808
2.1108	27.799
2.1100	27.785
2.1091	27.768
2.1082	27.757
2.1074	27.761
2.1065	27.784
2.1057	27.819
2.1048	27.850
2.1040	27.867
2.1031	27.862
2.1023	27.832
2.1014	27.792
2.1005	27.764
2.0997	27.760
2.0988	27.774
2.0980	27.795
2.0971	27.815
2.0963	27.827
2.0955	27.820
2.0946	27.805
2.0938	27.801
2.0929	27.806
2.0921	27.809
2.0912	27.805
2.0904	27.798
2.0895	27.783
2.0887	27.759
2.0879	27.742
2.0870	27.739
2.0862	27.743
2.0853	27.748
2.0845	27.749
2.0837	27.754
2.0828	27.760
2.0820	27.740
2.0812	27.774
2.0803	27.771
2.0795	27.737
2.0760	27.737
2.0720	27.857
2.0680	28.023
2.0640	28.043
2.0600	27.781
2.0560	27.926
2.0520	27.926
2.0480	27.644
2.0440	27.552
2.0400	27.433
2.0360	27.501
2.0320	27.593
2.0280	27.407
2.0240	27.222
2.0200	27.292
2.0160	27.292
2.0120	27.108
2.0080	26.993
2.0040	26.947
2.0000	26.924
1.9960	27.050
1.9920	26.719
1.9880	26.583
1.9840	26.651
1.9800	26.426
1.9760	26.561
1.9720	26.538
1.9680	26.516
1.9640	26.448
1.9600	26.381
1.9560	26.337
1.9520	26.356
1.9480	26.266
1.9440	26.153
1.9400	26.062
1.9360	25.812
1.9320	25.831
1.9280	25.781
1.9240	25.958
1.9200	26.003
1.9160	25.818
1.9120	25.752
1.9080	25.863
1.9040	26.003
1.9000	26.212
1.8960	26.580
1.8920	26.453
1.8880	26.201
1.8840	25.961
1.8800	25.721
1.8760	25.764
1.8720	25.607
1.8680	25.378
1.8640	25.657
1.8600	26.127
1.8560	26.315
1.8520	26.362
1.8480	26.208
1.8440	25.856
1.8400	25.739
1.8360	25.745
1.8320	25.958
1.8280	26.135
1.8240	26.032
1.8200	25.749
1.8160	25.710
1.8120	25.562
1.8080	25.516
1.8040	25.600
1.8000	25.516
1.7960	25.339
1.7920	25.318
1.7880	25.215
1.7840	25.277
1.7800	25.230
1.7760	25.251
1.7720	25.292
1.7680	25.115
1.7640	24.965
1.7600	24.857
1.7560	24.836
1.7520	24.924
1.7480	24.863
1.7440	24.883
1.7400	24.898
1.7360	24.857
1.7320	24.898
1.7280	24.959
1.7240	24.980
1.7200	25.110
1.7160	25.151
1.7120	25.110
1.7080	24.898
1.7040	24.850
1.7000	24.612
1.6960	24.768
1.6920	24.789
1.6880	24.789
1.6840	24.534
1.6800	24.612
1.6760	24.416
1.6720	24.484
1.6680	24.444
1.6640	24.318
1.6600	24.506
1.6560	24.230
1.6520	24.250
1.6480	24.191
1.6440	24.191
1.6400	24.290
1.6360	24.250
1.6320	24.142
1.6280	24.350
1.6240	24.201
1.6200	23.966
1.6160	23.839
1.6120	23.790
1.6080	23.878
1.6040	23.790
1.6000	23.751
1.5960	23.751
1.5920	23.887
1.5880	23.927
1.5840	23.907
1.5800	23.887
1.5760	23.887
1.5720	23.740
1.5680	23.740
1.5640	23.672
1.5600	23.458
1.5560	23.575
1.5520	23.477
1.5480	23.652
1.5440	23.301
1.5400	23.226
1.5360	23.082
1.5320	23.100
1.5280	23.082
1.5240	23.008
1.5200	23.188
1.5160	23.194
1.5120	23.119
1.5080	22.957
1.5040	22.778
1.5000	22.662
1.4960	22.754
1.4920	22.953
1.4880	23.161
1.4840	22.731
1.4800	22.684
1.4760	22.684
1.4720	22.666
1.4680	22.629
1.4640	22.552
1.4600	22.629
1.4560	22.358
1.4520	22.322
1.4480	22.340
1.4440	22.093
1.4400	21.981
1.4360	21.894
1.4320	22.006
1.4280	21.999
1.4240	21.999
1.4200	21.982
1.4160	21.918
1.4120	21.621
1.4080	21.342
1.4040	21.340
1.4000	21.488
1.3960	21.697
1.3920	21.803
1.3880	21.767
1.3840	21.570
1.3800	21.696
1.3760	21.696
1.3720	21.865
1.3680	22.046
1.3640	21.653
1.3600	21.162
1.3560	21.373
1.3520	21.760
1.3480	21.822
1.3440	21.841
1.3400	21.474
1.3360	21.113
1.3320	20.981
1.3280	20.894
1.3240	20.976
1.3200	21.076
1.3160	20.934
1.3120	20.780
1.3080	20.644
1.3040	20.612
1.3000	20.579
1.2960	20.579
1.2920	20.540
1.2880	20.485
1.2840	20.223
1.2800	20.198
1.2760	20.278
1.2720	20.270
1.2680	20.229
1.2640	20.431
1.2600	20.400
1.2560	20.261
1.2520	20.212
1.2480	20.261
1.2440	20.171
1.2400	20.203
1.2360	20.235
1.2320	20.095
1.2280	19.863
1.2240	19.558
1.2200	19.573
1.2160	19.610
1.2120	19.909
1.2080	20.005
1.2040	20.053
1.2000	19.765
1.1960	19.534
1.1920	19.458
1.1880	19.251
1.1840	19.383
1.1800	19.177
1.1760	19.147
1.1720	19.030
1.1680	18.863
1.1640	18.834
1.1600	18.812
1.1560	18.572
1.1520	18.426
1.1480	18.394
1.1440	18.401
1.1400	18.514
1.1360	18.633
1.1320	18.393
1.1280	18.515
1.1240	18.407
1.1200	18.313
1.1160	18.356
1.1120	18.215
1.1080	18.201
1.1040	18.009
1.1000	18.023
1.0960	17.948
1.0920	18.092
1.0880	17.957
1.0840	17.855
1.0800	17.725
1.0760	17.766
1.0720	17.725
1.0680	17.601
1.0640	17.446
1.0600	17.328
1.0560	17.239
1.0520	17.318
1.0480	17.344
1.0440	17.125
1.0400	17.125
1.0360	16.974
1.0320	17.104
1.0280	16.964
1.0240	16.888
1.0200	16.822
1.0160	16.759
1.0120	16.863
1.0080	16.699
1.0040	16.472
1.0000	16.460
0.99600	16.433
0.99200	16.382
0.98800	16.357
0.98400	16.232
0.98000	16.147
0.97600	16.031
0.97200	15.955
0.96800	15.879
0.96400	15.779
0.96000	15.879
0.95600	15.814
0.95200	15.780
0.94800	15.480
0.94400	15.538
0.94000	15.515
0.93600	15.427
0.93200	15.427
0.92800	15.304
0.92400	15.281
0.92000	15.040
0.91600	15.051
0.91200	15.095
0.90800	14.984
0.90400	14.952
0.90000	14.875
0.89600	14.677
0.89200	14.600
0.88800	14.600
0.88400	14.678
0.88000	14.645
0.87600	14.457
0.87200	14.468
0.86800	14.434
0.86400	14.389
0.86000	14.480
0.85600	14.379
0.85200	14.323
0.84800	14.032
0.84400	14.112
0.84000	14.053
0.83600	14.065
0.83200	13.974
0.82800	13.974
0.82400	13.933
0.82000	13.891
0.81600	13.859
0.81200	13.859
0.80800	13.739
0.80400	13.667
0.80000	13.548
0.79900	13.548
0.79800	13.548
0.79700	13.511
0.79600	13.521
0.79500	13.452
0.79400	13.537
0.79300	13.336
0.79200	13.325
0.79100	13.229
0.79000	13.070
0.78900	13.163
0.78800	13.286
0.78700	13.186
0.78600	13.197
0.78500	13.101
0.78400	13.101
0.78300	13.112
0.78200	13.089
0.78100	13.063
0.78000	13.001
0.77900	13.012
0.77800	13.015
0.77700	12.896
0.77600	12.970
0.77500	13.225
0.77400	13.052
0.77300	12.896
0.77200	12.807
0.77100	12.617
0.77000	12.617
0.76900	12.711
0.76800	12.774
0.76700	12.807
0.76600	12.994
0.76500	12.711
0.76400	12.722
0.76300	12.614
0.76200	12.570
0.76100	12.552
0.76000	12.410
0.75900	12.528
0.75800	12.539
0.75700	12.550
0.75600	12.528
0.75500	12.421
0.75400	12.238
0.75300	12.443
0.75200	12.227
0.75100	12.410
0.75000	12.517
0.74900	12.421
0.74800	12.388
0.74700	12.436
0.74600	12.475
0.74500	12.414
0.74400	12.340
0.74300	12.318
0.74200	12.285
0.74100	12.373
0.74000	12.384
0.73900	12.221
0.73800	12.221
0.73700	12.232
0.73600	12.221
0.73500	12.221
0.73400	12.045
0.73300	12.146
0.73200	12.297
0.73100	12.275
0.73000	11.963
0.72900	11.995
0.72800	11.795
0.72700	11.866
0.72600	11.511
0.72500	11.769
0.72400	11.866
0.72300	11.707
0.72200	11.707
0.72100	11.855
0.72000	11.855
0.71900	11.759
0.71800	11.703
0.71700	11.693
0.71600	11.474
0.71500	11.693
0.71400	11.766
0.71300	11.462
0.71200	11.516
0.71100	11.534
0.71000	11.631
0.70900	11.494
0.70800	11.272
0.70700	11.381
0.70600	11.506
0.70500	11.547
0.70400	11.450
0.70300	11.496
0.70200	11.429
0.70100	11.514
0.70000	11.503
0.69900	12.004
0.69800	11.867
0.69700	11.798
0.69600	11.800
0.69500	11.667
0.69400	11.545
0.69300	11.182
0.69200	11.182
0.69100	11.213
0.69000	11.103
0.68900	11.154
0.68800	11.223
0.68700	11.313
0.68600	11.313
0.68500	11.344
0.68400	11.123
0.68300	11.144
0.68200	11.175
0.68100	11.054
0.68000	11.023
0.67900	10.893
0.67800	10.893
0.67700	11.094
0.67600	11.074
0.67500	11.144
0.67400	11.154
0.67300	10.943
0.67200	10.893
0.67100	10.853
0.67000	10.843
0.66900	10.813
0.66800	10.894
0.66700	10.812
0.66600	10.792
0.66500	10.642
0.66400	10.523
0.66300	10.561
0.66200	10.702
0.66100	10.692
0.66000	10.461
0.65900	10.490
0.65800	10.621
0.65700	10.651
0.65600	10.732
0.65500	10.591
0.65400	10.732
0.65300	10.621
0.65200	10.548
0.65100	10.558
0.65000	10.326
0.64900	10.390
0.64800	10.289
0.64700	10.318
0.64600	10.327
0.64500	10.318
0.64400	10.289
0.64300	10.289
0.64200	10.409
0.64100	10.327
0.64000	10.226
0.63900	10.226
0.63800	10.124
0.63700	10.308
0.63600	9.9956
0.63500	10.087
0.63400	10.097
0.63300	9.9956
0.63200	10.005
0.63100	10.087
0.63000	10.042
0.62900	9.8394
0.62800	9.8394
0.62700	10.014
0.62600	9.8120
0.62500	9.8120
0.62400	9.8211
0.62300	9.8578
0.62200	9.7562
0.62100	9.8486
0.62000	9.8578
0.61900	9.7562
0.61800	9.6636
0.61700	9.7471
0.61600	9.6366
0.61500	9.8211
0.61400	9.7199
0.61300	9.6009
0.61200	9.5087
0.61100	9.5087
0.61000	9.6098
0.60900	9.5087
0.60800	9.5087
0.60700	9.5175
0.60600	9.5352
0.60500	9.5440
0.60400	9.5440
0.60300	9.4584
0.60200	9.3934
0.60100	9.4286
0.60000	9.2999
0.59900	9.1891
0.59800	9.2235
0.59700	9.3436
0.59600	9.3789
0.59500	9.4055
0.59400	9.2844
0.59300	9.1898
0.59200	9.3789
0.59100	9.2757
0.59000	9.1467
0.58900	9.2844
0.58800	9.1898
0.58700	9.2757
0.58600	9.0693
0.58500	9.1467
0.58400	9.0693
0.58300	9.1985
0.58200	9.0438
0.58100	9.0864
0.58000	9.0693
0.57900	8.8797
0.57800	8.8630
0.57700	8.8630
0.57600	8.7598
0.57500	8.7598
0.57400	8.9380
0.57300	8.9765
0.57200	8.9102
0.57100	8.7238
0.57000	8.9432
0.56900	8.9349
0.56800	8.7238
0.56700	8.7238
0.56600	8.7319
0.56500	8.6304
0.56400	8.5289
0.56300	8.5210
0.56200	8.5210
0.56100	8.6383
0.56000	8.5604
0.55900	8.2779
0.55800	8.7458
0.55700	8.6270
0.55600	8.5819
0.55500	8.4554
0.55400	8.5521
0.55300	8.6564
0.55200	8.5867
0.55100	8.5368
0.55000	8.4820
0.54900	8.5584
0.54800	8.5584
0.54700	8.3075
0.54600	8.3523
0.54500	8.2927
0.54400	8.1886
0.54300	8.4212
0.54200	8.3298
0.54100	8.3748
0.54000	8.2235
0.53900	8.2088
0.53800	8.2382
0.53700	8.2979
0.53600	8.2679
0.53500	8.2679
0.53400	8.2905
0.53300	7.9632
0.53200	8.0330
0.53100	8.0402
0.53000	8.0618
0.52900	7.9702
0.52800	8.1763
0.52700	8.1546
0.52600	7.8362
0.52500	7.9632
0.52400	8.1981
0.52300	7.9282
0.52200	7.8225
0.52100	7.9351
0.52000	7.7719
0.51900	7.9058
0.51800	7.8440
0.51700	7.6394
0.51600	7.7714
0.51500	7.7237
0.51400	7.6984
0.51300	7.7237
0.51200	7.6659
0.51100	7.8237
0.51000	7.6672
0.50900	7.7787
0.50800	7.5300
0.50700	7.4312
0.50600	7.3943
0.50500	7.5300
0.50400	7.4499
0.50300	7.7050
0.50200	7.8225
0.50100	7.5300
0.50000	7.4374
0.49900	7.4499
0.49800	7.5237
0.49700	7.4499
0.49600	7.3278
0.49500	7.3458
0.49400	7.5049
0.49300	7.3602
0.49200	7.4987
0.49100	7.4264
0.49000	7.3458
0.48900	7.2174
0.48800	7.2115
0.48700	7.3961
0.48600	7.3056
0.48500	7.2073
0.48400	7.4022
0.48300	7.2304
0.48200	7.3706
0.48100	7.2479
0.48000	7.3291
0.47900	7.1164
0.47800	7.0425
0.47700	6.9438
0.47600	6.9543
0.47500	7.0478
0.47400	7.0425
0.47300	7.0266
0.47200	6.9281
0.47100	6.8412
0.47000	6.9296
0.46900	6.7198
0.46800	6.7198
0.46700	6.9261
0.46600	6.8180
0.46500	6.9970
0.46400	6.8033
0.46300	6.9450
0.46200	6.7310
0.46100	6.8342
0.46000	6.7280
0.45900	6.6343
0.45800	6.7688
0.45700	6.5813
0.45600	6.6074
0.45500	6.3926
0.45400	6.3988
0.45300	6.4712
0.45200	6.3764
0.45100	6.4987
0.45000	6.4143
0.44900	6.5128
0.44800	6.5128
0.44700	6.5196
0.44600	6.3126
0.44500	6.2939
0.44400	6.3915
0.44300	6.4077
0.44200	6.4309
0.44100	6.1249
0.44000	6.0344
0.43900	6.0115
0.43800	6.0303
0.43700	6.1505
0.43600	6.1148
0.43500	6.0081
0.43400	6.2211
0.43300	6.2276
0.43200	6.1140
0.43100	6.2211
0.43000	6.1200
0.42900	6.1381
0.42800	5.8115
0.42700	6.1249
0.42600	6.1191
0.42500	5.8962
0.42400	5.7958
0.42300	6.0202
0.42200	6.0074
0.42100	5.8047
0.42000	6.0355
0.41900	5.9089
0.41800	5.8979
0.41700	6.1057
0.41600	5.8979
0.41500	6.1057
0.41400	5.9999
0.41300	5.8781
0.41200	6.0900
0.41100	5.8856
0.41000	5.8743
0.40900	5.7643
0.40800	5.8745
0.40700	5.7760
0.40600	5.7760
0.40500	5.7736
0.40400	5.4588
0.40300	5.5671
0.40200	5.6737
0.40100	5.7720
0.40000	5.7782
0.0000	
