Name: Illite-bearing Shale 
Type:  Rocks
Class:  Sedimentary
Subclass: Shale 
Particle Size:  0 - 75 Micrometers
Sample No.:  shale.5
Owner:  JHU
Wavelength Range:  All
Origin:  Sample No. 449,  The Hunt and Salisbury Collection at the U.S. 
Geological Survey, Denver, Co.
Description: Sample is very homogeneously fine grained to 
microcrystalline, consisting of a yellowish-brown to cloudy material 
(clay) and some very fine grained quartz. There is also, scattered 
throughout, a reddish brown opaque phase (hematite?), and perhaps 
carbonaceous material as well.

Measurement:  Directional (10 Degree) Hemispherical Reflectance
First Column:  X
Second Column:  Y  
X Units:  Wavelength (micrometers)
Y Units:  Reflectance (percent)
First X Value: 14.0112
Last X Value:  0.4
Number of X Values: 2844
Additional Information:  None

14.983	1.5909
14.940	1.3856
14.897	1.2262
14.854	1.1407
14.812	1.1322
14.770	1.1819
14.728	1.2610
14.686	1.3401
14.645	1.3979
14.603	1.4223
14.562	1.4114
14.521	1.3716
14.481	1.3165
14.441	1.2634
14.400	1.2329
14.361	1.2430
14.321	1.3049
14.281	1.4199
14.242	1.5777
14.203	1.7603
14.164	1.9454
14.126	2.1141
14.087	2.2535
14.049	2.3615
14.011	2.4451
13.973	2.5150
13.936	2.5803
13.899	2.6464
13.861	2.7125
13.824	2.7745
13.788	2.8285
13.751	2.8721
13.715	2.9069
13.679	2.9346
13.643	2.9557
13.607	2.9687
13.571	2.9716
13.536	2.9626
13.500	2.9422
13.465	2.9140
13.430	2.8837
13.396	2.8579
13.361	2.8418
13.327	2.8385
13.293	2.8491
13.259	2.8726
13.225	2.9057
13.191	2.9441
13.158	2.9827
13.124	3.0149
13.091	3.0331
13.058	3.0291
13.026	2.9964
12.993	2.9320
12.960	2.8387
12.928	2.7253
12.896	2.6066
12.864	2.4979
12.832	2.4117
12.800	2.3547
12.769	2.3241
12.737	2.3111
12.706	2.3009
12.675	2.2789
12.644	2.2336
12.614	2.1600
12.583	2.0603
12.552	1.9445
12.522	1.8282
12.492	1.7280
12.462	1.6594
12.432	1.6317
12.402	1.6463
12.373	1.6987
12.343	1.7778
12.314	1.8713
12.285	1.9663
12.256	2.0515
12.227	2.1202
12.198	2.1685
12.169	2.1977
12.141	2.2130
12.113	2.2235
12.084	2.2391
12.056	2.2696
12.028	2.3227
12.000	2.4011
11.973	2.5036
11.945	2.6256
11.918	2.7610
11.890	2.9036
11.863	3.0485
11.836	3.1928
11.809	3.3327
11.782	3.4651
11.755	3.5854
11.729	3.6898
11.702	3.7746
11.676	3.8390
11.650	3.8854
11.624	3.9174
11.598	3.9380
11.572	3.9494
11.546	3.9510
11.520	3.9413
11.495	3.9188
11.469	3.8847
11.444	3.8421
11.419	3.7966
11.394	3.7523
11.369	3.7123
11.344	3.6756
11.319	3.6391
11.294	3.5982
11.270	3.5484
11.245	3.4873
11.221	3.4139
11.197	3.3280
11.173	3.2304
11.149	3.1222
11.125	3.0052
11.101	2.8830
11.077	2.7603
11.054	2.6445
11.030	2.5427
11.007	2.4608
10.983	2.4020
10.960	2.3660
10.937	2.3502
10.914	2.3497
10.891	2.3606
10.868	2.3786
10.846	2.4011
10.823	2.4255
10.800	2.4496
10.778	2.4724
10.755	2.4934
10.733	2.5140
10.711	2.5356
10.689	2.5593
10.667	2.5851
10.645	2.6121
10.623	2.6372
10.602	2.6571
10.580	2.6687
10.558	2.6696
10.537	2.6592
10.516	2.6379
10.494	2.6081
10.473	2.5725
10.452	2.5349
10.431	2.4982
10.410	2.4631
10.389	2.4293
10.368	2.3942
10.348	2.3554
10.327	2.3118
10.306	2.2647
10.286	2.2175
10.266	2.1742
10.245	2.1387
10.225	2.1124
10.205	2.0939
10.185	2.0807
10.165	2.0693
10.145	2.0579
10.125	2.0466
10.106	2.0364
10.086	2.0297
10.066	2.0274
10.047	2.0281
10.027	2.0302
10.008	2.0312
9.9887	2.0297
9.9695	2.0257
9.9504	2.0210
9.9313	2.0184
9.9123	2.0198
9.8934	2.0264
9.8746	2.0373
9.8558	2.0520
9.8371	2.0691
9.8185	2.0885
9.7999	2.1112
9.7814	2.1382
9.7630	2.1697
9.7447	2.2052
9.7264	2.2431
9.7082	2.2810
9.6900	2.3175
9.6719	2.3516
9.6539	2.3836
9.6360	2.4139
9.6181	2.4420
9.6003	2.4679
9.5825	2.4906
9.5649	2.5098
9.5472	2.5249
9.5297	2.5368
9.5122	2.5467
9.4948	2.5564
9.4774	2.5678
9.4601	2.5837
9.4429	2.6066
9.4257	2.6388
9.4086	2.6812
9.3916	2.7329
9.3746	2.7906
9.3577	2.8501
9.3408	2.9055
9.3240	2.9529
9.3073	2.9898
9.2906	3.0166
9.2740	3.0362
9.2574	3.0521
9.2409	3.0682
9.2245	3.0869
9.2081	3.1080
9.1918	3.1305
9.1755	3.1527
9.1593	3.1752
9.1431	3.1984
9.1270	3.2247
9.1110	3.2550
9.0950	3.2884
9.0791	3.3218
9.0632	3.3500
9.0474	3.3687
9.0316	3.3768
9.0159	3.3756
9.0003	3.3692
8.9847	3.3618
8.9691	3.3573
8.9536	3.3573
8.9382	3.3611
8.9228	3.3680
8.9075	3.3765
8.8922	3.3862
8.8770	3.3957
8.8618	3.4047
8.8467	3.4130
8.8316	3.4203
8.8166	3.4277
8.8016	3.4357
8.7867	3.4445
8.7718	3.4518
8.7570	3.4535
8.7422	3.4424
8.7275	3.4113
8.7129	3.3550
8.6982	3.2728
8.6837	3.1717
8.6692	3.0661
8.6547	2.9758
8.6403	2.9204
8.6259	2.9140
8.6116	2.9595
8.5973	3.0485
8.5830	3.1629
8.5688	3.2813
8.5547	3.3848
8.5406	3.4615
8.5266	3.5075
8.5126	3.5264
8.4986	3.5262
8.4847	3.5162
8.4708	3.5039
8.4570	3.4949
8.4432	3.4926
8.4295	3.4971
8.4158	3.5080
8.4022	3.5250
8.3886	3.5480
8.3750	3.5780
8.3615	3.6167
8.3481	3.6652
8.3347	3.7249
8.3213	3.7966
8.3079	3.8819
8.2946	3.9816
8.2814	4.0972
8.2682	4.2283
8.2550	4.3733
8.2419	4.5258
8.2288	4.6771
8.2158	4.8166
8.2028	4.9329
8.1898	5.0174
8.1769	5.0648
8.1640	5.0733
8.1512	5.0449
8.1384	4.9843
8.1256	4.8983
8.1129	4.7950
8.1002	4.6833
8.0876	4.5713
8.0750	4.4656
8.0624	4.3711
8.0499	4.2894
8.0374	4.2196
8.0250	4.1582
8.0126	4.1014
8.0002	4.0451
7.9879	3.9856
7.9756	3.9210
7.9634	3.8506
7.9512	3.7756
7.9390	3.6979
7.9268	3.6197
7.9147	3.5432
7.9027	3.4708
7.8906	3.4042
7.8786	3.3453
7.8667	3.2962
7.8548	3.2600
7.8429	3.2396
7.8310	3.2373
7.8192	3.2541
7.8075	3.2889
7.7957	3.3384
7.7840	3.3978
7.7723	3.4618
7.7607	3.5267
7.7491	3.5894
7.7375	3.6498
7.7260	3.7083
7.7145	3.7663
7.7031	3.8243
7.6916	3.8816
7.6802	3.9375
7.6689	3.9901
7.6575	4.0389
7.6462	4.0841
7.6350	4.1277
7.6238	4.1736
7.6126	4.2248
7.6014	4.2845
7.5903	4.3531
7.5792	4.4292
7.5681	4.5087
7.5571	4.5871
7.5461	4.6601
7.5351	4.7254
7.5242	4.7830
7.5133	4.8346
7.5024	4.8839
7.4916	4.9348
7.4807	4.9897
7.4700	5.0503
7.4592	5.1174
7.4485	5.1896
7.4378	5.2658
7.4272	5.3435
7.4165	5.4207
7.4059	5.4944
7.3954	5.5619
7.3848	5.6213
7.3743	5.6722
7.3639	5.7163
7.3534	5.7556
7.3430	5.7932
7.3326	5.8323
7.3223	5.8754
7.3119	5.9239
7.3016	5.9784
7.2914	6.0381
7.2811	6.1013
7.2709	6.1657
7.2607	6.2283
7.2506	6.2860
7.2404	6.3360
7.2303	6.3744
7.2203	6.3983
7.2102	6.4040
7.2002	6.3898
7.1902	6.3552
7.1803	6.3021
7.1703	6.2349
7.1604	6.1589
7.1506	6.0788
7.1407	5.9985
7.1309	5.9204
7.1211	5.8451
7.1113	5.7738
7.1016	5.7087
7.0919	5.6526
7.0822	5.6078
7.0725	5.5765
7.0629	5.5593
7.0533	5.5536
7.0437	5.5571
7.0341	5.5664
7.0246	5.5796
7.0151	5.5969
7.0056	5.6206
6.9962	5.6556
6.9867	5.7082
6.9773	5.7840
6.9679	5.8870
6.9586	6.0180
6.9493	6.1740
6.9400	6.3490
6.9307	6.5342
6.9214	6.7208
6.9122	6.9015
6.9030	7.0723
6.8938	7.2340
6.8847	7.3915
6.8755	7.5509
6.8664	7.7178
6.8573	7.8940
6.8483	8.0776
6.8393	8.2616
6.8302	8.4392
6.8213	8.6054
6.8123	8.7584
6.8034	8.8991
6.7944	9.0298
6.7855	9.1529
6.7767	9.2690
6.7678	9.3762
6.7590	9.4741
6.7502	9.5626
6.7414	9.6446
6.7327	9.7253
6.7239	9.8120
6.7152	9.9122
6.7065	10.031
6.6979	10.172
6.6892	10.331
6.6806	10.501
6.6720	10.671
6.6634	10.834
6.6549	10.986
6.6464	11.127
6.6378	11.261
6.6294	11.389
6.6209	11.509
6.6124	11.614
6.6040	11.699
6.5956	11.762
6.5872	11.810
6.5789	11.858
6.5705	11.925
6.5622	12.032
6.5539	12.191
6.5456	12.405
6.5374	12.667
6.5292	12.967
6.5209	13.292
6.5128	13.632
6.5046	13.982
6.4964	14.339
6.4883	14.699
6.4802	15.051
6.4721	15.378
6.4640	15.660
6.4560	15.882
6.4480	16.035
6.4399	16.128
6.4320	16.177
6.4240	16.205
6.4160	16.230
6.4081	16.256
6.4002	16.273
6.3923	16.265
6.3844	16.213
6.3766	16.107
6.3687	15.949
6.3609	15.752
6.3531	15.530
6.3454	15.296
6.3376	15.058
6.3299	14.814
6.3221	14.562
6.3144	14.296
6.3068	14.016
6.2991	13.724
6.2914	13.423
6.2838	13.121
6.2762	12.821
6.2686	12.529
6.2611	12.248
6.2535	11.980
6.2460	11.728
6.2385	11.493
6.2310	11.276
6.2235	11.079
6.2160	10.904
6.2086	10.756
6.2011	10.641
6.1937	10.565
6.1863	10.533
6.1790	10.545
6.1716	10.597
6.1643	10.680
6.1570	10.781
6.1496	10.889
6.1424	10.997
6.1351	11.101
6.1278	11.207
6.1206	11.318
6.1134	11.440
6.1062	11.571
6.0990	11.708
6.0918	11.840
6.0847	11.958
6.0776	12.058
6.0704	12.146
6.0633	12.230
6.0563	12.323
6.0492	12.433
6.0421	12.562
6.0351	12.703
6.0281	12.842
6.0211	12.965
6.0141	13.061
6.0071	13.127
6.0002	13.165
5.9932	13.184
5.9863	13.189
5.9794	13.187
5.9725	13.179
5.9657	13.170
5.9588	13.168
5.9520	13.184
5.9451	13.233
5.9383	13.328
5.9315	13.472
5.9247	13.661
5.9180	13.883
5.9112	14.124
5.9045	14.373
5.8978	14.630
5.8911	14.898
5.8844	15.182
5.8777	15.484
5.8711	15.801
5.8644	16.117
5.8578	16.417
5.8512	16.690
5.8446	16.932
5.8380	17.148
5.8314	17.353
5.8249	17.558
5.8184	17.771
5.8118	17.990
5.8053	18.202
5.7988	18.391
5.7923	18.548
5.7859	18.672
5.7794	18.771
5.7730	18.862
5.7666	18.959
5.7602	19.070
5.7538	19.191
5.7474	19.311
5.7410	19.420
5.7347	19.507
5.7283	19.568
5.7220	19.605
5.7157	19.623
5.7094	19.629
5.7031	19.623
5.6969	19.601
5.6906	19.556
5.6844	19.478
5.6782	19.356
5.6719	19.187
5.6657	18.970
5.6596	18.716
5.6534	18.439
5.6472	18.159
5.6411	17.892
5.6349	17.650
5.6288	17.438
5.6227	17.253
5.6166	17.092
5.6106	16.948
5.6045	16.819
5.5984	16.704
5.5924	16.606
5.5864	16.531
5.5804	16.481
5.5744	16.460
5.5684	16.467
5.5624	16.501
5.5564	16.558
5.5505	16.636
5.5445	16.732
5.5386	16.845
5.5327	16.975
5.5268	17.124
5.5209	17.291
5.5151	17.476
5.5092	17.676
5.5033	17.888
5.4975	18.109
5.4917	18.334
5.4859	18.560
5.4801	18.785
5.4743	19.004
5.4685	19.215
5.4628	19.409
5.4570	19.577
5.4513	19.708
5.4455	19.792
5.4398	19.822
5.4341	19.792
5.4284	19.700
5.4228	19.546
5.4171	19.328
5.4114	19.047
5.4058	18.701
5.4002	18.298
5.3945	17.850
5.3889	17.378
5.3833	16.907
5.3778	16.466
5.3722	16.081
5.3666	15.771
5.3611	15.548
5.3555	15.413
5.3500	15.359
5.3445	15.375
5.3390	15.446
5.3335	15.556
5.3280	15.694
5.3225	15.851
5.3171	16.024
5.3116	16.214
5.3062	16.424
5.3008	16.660
5.2954	16.930
5.2900	17.238
5.2846	17.587
5.2792	17.979
5.2738	18.409
5.2684	18.875
5.2631	19.373
5.2578	19.901
5.2524	20.456
5.2471	21.035
5.2418	21.630
5.2365	22.231
5.2312	22.822
5.2260	23.384
5.2207	23.903
5.2154	24.365
5.2102	24.763
5.2050	25.096
5.1998	25.366
5.1945	25.581
5.1893	25.751
5.1842	25.887
5.1790	25.999
5.1738	26.096
5.1686	26.184
5.1635	26.267
5.1584	26.345
5.1532	26.421
5.1481	26.497
5.1430	26.575
5.1379	26.660
5.1328	26.751
5.1277	26.847
5.1227	26.941
5.1176	27.023
5.1126	27.082
5.1075	27.108
5.1025	27.093
5.0975	27.036
5.0925	26.943
5.0875	26.826
5.0825	26.701
5.0775	26.586
5.0726	26.494
5.0676	26.434
5.0627	26.408
5.0577	26.410
5.0528	26.431
5.0479	26.461
5.0430	26.490
5.0380	26.511
5.0332	26.527
5.0283	26.539
5.0234	26.557
5.0185	26.589
5.0137	26.644
5.0088	26.730
5.0040	26.854
4.9992	27.021
4.9944	27.238
4.9896	27.512
4.9848	27.846
4.9800	28.239
4.9752	28.680
4.9704	29.150
4.9657	29.623
4.9609	30.073
4.9562	30.479
4.9514	30.830
4.9467	31.125
4.9420	31.379
4.9373	31.613
4.9326	31.857
4.9279	32.135
4.9232	32.472
4.9186	32.876
4.9139	33.349
4.9092	33.876
4.9046	34.436
4.9000	35.004
4.8953	35.555
4.8907	36.069
4.8861	36.534
4.8815	36.947
4.8769	37.310
4.8723	37.627
4.8678	37.906
4.8632	38.155
4.8586	38.380
4.8541	38.587
4.8495	38.781
4.8450	38.963
4.8405	39.136
4.8360	39.298
4.8315	39.451
4.8270	39.595
4.8225	39.732
4.8180	39.864
4.8135	39.993
4.8090	40.121
4.8046	40.250
4.8001	40.378
4.7957	40.506
4.7913	40.634
4.7868	40.765
4.7824	40.897
4.7780	41.032
4.7736	41.170
4.7692	41.308
4.7648	41.446
4.7605	41.582
4.7561	41.715
4.7517	41.847
4.7474	41.978
4.7431	42.109
4.7387	42.239
4.7344	42.369
4.7301	42.494
4.7258	42.611
4.7215	42.718
4.7172	42.812
4.7129	42.889
4.7086	42.951
4.7043	42.999
4.7000	43.038
4.6958	43.074
4.6915	43.118
4.6873	43.177
4.6831	43.262
4.6788	43.373
4.6746	43.511
4.6704	43.671
4.6662	43.846
4.6620	44.028
4.6578	44.210
4.6536	44.389
4.6495	44.564
4.6453	44.735
4.6411	44.902
4.6370	45.067
4.6328	45.230
4.6287	45.391
4.6246	45.549
4.6205	45.703
4.6163	45.853
4.6122	45.999
4.6081	46.139
4.6040	46.276
4.6000	46.406
4.5959	46.532
4.5918	46.653
4.5877	46.771
4.5837	46.887
4.5796	47.000
4.5756	47.110
4.5716	47.215
4.5675	47.314
4.5635	47.405
4.5595	47.488
4.5555	47.563
4.5515	47.630
4.5475	47.687
4.5435	47.736
4.5395	47.776
4.5356	47.806
4.5316	47.826
4.5276	47.835
4.5237	47.831
4.5197	47.812
4.5158	47.780
4.5119	47.737
4.5080	47.690
4.5040	47.645
4.5001	47.609
4.4962	47.588
4.4923	47.584
4.4884	47.596
4.4846	47.622
4.4807	47.659
4.4768	47.704
4.4730	47.761
4.4691	47.829
4.4652	47.913
4.4614	48.015
4.4576	48.132
4.4537	48.262
4.4499	48.400
4.4461	48.540
4.4423	48.678
4.4385	48.813
4.4347	48.944
4.4309	49.073
4.4271	49.200
4.4233	49.326
4.4196	49.452
4.4158	49.576
4.4120	49.700
4.4083	49.823
4.4045	49.947
4.4008	50.072
4.3971	50.199
4.3934	50.328
4.3896	50.458
4.3859	50.587
4.3822	50.713
4.3785	50.833
4.3748	50.945
4.3711	51.050
4.3674	51.146
4.3638	51.236
4.3601	51.319
4.3564	51.396
4.3528	51.465
4.3491	51.527
4.3455	51.580
4.3418	51.625
4.3382	51.662
4.3346	51.693
4.3310	51.718
4.3273	51.739
4.3237	51.752
4.3201	51.759
4.3165	51.756
4.3129	51.744
4.3094	51.722
4.3058	51.690
4.3022	51.645
4.2986	51.582
4.2951	51.491
4.2915	51.362
4.2880	51.185
4.2844	50.957
4.2809	50.683
4.2774	50.384
4.2738	50.093
4.2703	49.848
4.2668	49.686
4.2633	49.634
4.2598	49.701
4.2563	49.877
4.2528	50.139
4.2493	50.454
4.2458	50.790
4.2424	51.120
4.2389	51.429
4.2354	51.704
4.2320	51.945
4.2285	52.150
4.2251	52.322
4.2216	52.464
4.2182	52.579
4.2148	52.671
4.2113	52.743
4.2079	52.801
4.2045	52.849
4.2011	52.891
4.1977	52.932
4.1943	52.972
4.1909	53.013
4.1875	53.055
4.1841	53.096
4.1808	53.136
4.1774	53.176
4.1740	53.218
4.1707	53.263
4.1673	53.311
4.1640	53.360
4.1606	53.409
4.1573	53.456
4.1540	53.499
4.1506	53.539
4.1473	53.578
4.1440	53.618
4.1407	53.660
4.1374	53.706
4.1341	53.753
4.1308	53.802
4.1275	53.849
4.1242	53.893
4.1209	53.934
4.1177	53.973
4.1144	54.010
4.1111	54.046
4.1079	54.081
4.1046	54.114
4.1014	54.145
4.0981	54.173
4.0949	54.198
4.0917	54.223
4.0884	54.246
4.0852	54.269
4.0820	54.291
4.0788	54.311
4.0756	54.328
4.0724	54.340
4.0692	54.347
4.0660	54.349
4.0628	54.345
4.0596	54.337
4.0565	54.327
4.0533	54.315
4.0501	54.303
4.0470	54.289
4.0438	54.271
4.0406	54.246
4.0375	54.211
4.0344	54.166
4.0312	54.110
4.0281	54.045
4.0250	53.971
4.0218	53.890
4.0187	53.801
4.0156	53.702
4.0125	53.591
4.0094	53.463
4.0063	53.318
4.0032	53.155
4.0001	52.975
3.9970	52.783
3.9940	52.581
3.9909	52.377
3.9878	52.175
3.9847	51.981
3.9817	51.803
3.9786	51.647
3.9756	51.521
3.9725	51.430
3.9695	51.373
3.9665	51.349
3.9634	51.353
3.9604	51.377
3.9574	51.415
3.9544	51.460
3.9513	51.512
3.9483	51.566
3.9453	51.623
3.9423	51.681
3.9393	51.740
3.9363	51.799
3.9333	51.860
3.9304	51.923
3.9274	51.993
3.9244	52.071
3.9214	52.162
3.9185	52.264
3.9155	52.374
3.9126	52.487
3.9096	52.596
3.9067	52.695
3.9037	52.778
3.9008	52.843
3.8979	52.891
3.8949	52.926
3.8920	52.951
3.8891	52.972
3.8862	52.990
3.8833	53.009
3.8804	53.029
3.8775	53.054
3.8746	53.086
3.8717	53.127
3.8688	53.178
3.8659	53.235
3.8630	53.295
3.8601	53.351
3.8573	53.395
3.8544	53.423
3.8515	53.431
3.8487	53.420
3.8458	53.393
3.8430	53.350
3.8401	53.297
3.8373	53.234
3.8344	53.162
3.8316	53.085
3.8288	53.003
3.8259	52.921
3.8231	52.840
3.8203	52.766
3.8175	52.701
3.8147	52.648
3.8119	52.610
3.8091	52.588
3.8063	52.581
3.8035	52.589
3.8007	52.609
3.7979	52.634
3.7951	52.660
3.7924	52.684
3.7896	52.701
3.7868	52.712
3.7841	52.717
3.7813	52.718
3.7785	52.717
3.7758	52.711
3.7730	52.700
3.7703	52.682
3.7676	52.657
3.7648	52.625
3.7621	52.588
3.7594	52.548
3.7566	52.507
3.7539	52.465
3.7512	52.421
3.7485	52.373
3.7458	52.321
3.7431	52.264
3.7404	52.201
3.7377	52.135
3.7350	52.066
3.7323	51.996
3.7296	51.928
3.7269	51.861
3.7242	51.797
3.7216	51.734
3.7189	51.673
3.7162	51.611
3.7136	51.548
3.7109	51.481
3.7083	51.413
3.7056	51.343
3.7030	51.273
3.7003	51.203
3.6977	51.136
3.6950	51.071
3.6924	51.008
3.6898	50.948
3.6872	50.888
3.6845	50.827
3.6819	50.763
3.6793	50.694
3.6767	50.619
3.6741	50.538
3.6715	50.453
3.6689	50.367
3.6663	50.281
3.6637	50.197
3.6611	50.115
3.6585	50.033
3.6560	49.950
3.6534	49.866
3.6508	49.779
3.6482	49.692
3.6457	49.603
3.6431	49.514
3.6406	49.423
3.6380	49.327
3.6355	49.226
3.6329	49.119
3.6304	49.006
3.6278	48.889
3.6253	48.768
3.6227	48.645
3.6202	48.519
3.6177	48.391
3.6152	48.262
3.6127	48.131
3.6101	47.999
3.6076	47.865
3.6051	47.730
3.6026	47.591
3.6001	47.450
3.5976	47.304
3.5951	47.153
3.5926	46.997
3.5901	46.836
3.5876	46.671
3.5852	46.504
3.5827	46.335
3.5802	46.165
3.5777	45.994
3.5753	45.819
3.5728	45.640
3.5704	45.456
3.5679	45.270
3.5654	45.082
3.5630	44.895
3.5605	44.711
3.5581	44.530
3.5557	44.353
3.5532	44.180
3.5508	44.014
3.5484	43.855
3.5459	43.707
3.5435	43.569
3.5411	43.444
3.5387	43.332
3.5363	43.231
3.5338	43.142
3.5314	43.061
3.5290	42.986
3.5266	42.915
3.5242	42.847
3.5218	42.779
3.5195	42.712
3.5171	42.643
3.5147	42.569
3.5123	42.489
3.5099	42.402
3.5075	42.311
3.5052	42.221
3.5028	42.139
3.5004	42.073
3.4981	42.024
3.4957	41.989
3.4934	41.961
3.4910	41.931
3.4887	41.889
3.4863	41.831
3.4840	41.754
3.4816	41.661
3.4793	41.558
3.4770	41.451
3.4746	41.342
3.4723	41.235
3.4700	41.129
3.4677	41.023
3.4653	40.916
3.4630	40.806
3.4607	40.693
3.4584	40.577
3.4561	40.460
3.4538	40.342
3.4515	40.225
3.4492	40.111
3.4469	40.002
3.4446	39.898
3.4423	39.798
3.4400	39.701
3.4378	39.603
3.4355	39.498
3.4332	39.382
3.4309	39.252
3.4287	39.104
3.4264	38.941
3.4241	38.768
3.4219	38.590
3.4196	38.416
3.4174	38.250
3.4151	38.097
3.4129	37.957
3.4106	37.829
3.4084	37.712
3.4061	37.601
3.4039	37.491
3.4017	37.379
3.3994	37.258
3.3972	37.126
3.3950	36.981
3.3928	36.824
3.3906	36.659
3.3883	36.490
3.3861	36.322
3.3839	36.157
3.3817	35.996
3.3795	35.838
3.3773	35.681
3.3751	35.524
3.3729	35.367
3.3707	35.211
3.3685	35.056
3.3663	34.902
3.3641	34.749
3.3620	34.596
3.3598	34.446
3.3576	34.297
3.3554	34.151
3.3533	34.009
3.3511	33.870
3.3489	33.735
3.3468	33.603
3.3446	33.473
3.3425	33.347
3.3403	33.222
3.3382	33.098
3.3360	32.974
3.3339	32.849
3.3317	32.723
3.3296	32.597
3.3274	32.471
3.3253	32.348
3.3232	32.227
3.3210	32.109
3.3189	31.995
3.3168	31.886
3.3147	31.782
3.3126	31.685
3.3104	31.595
3.3083	31.511
3.3062	31.432
3.3041	31.358
3.3020	31.285
3.2999	31.211
3.2978	31.136
3.2957	31.059
3.2936	30.982
3.2915	30.908
3.2894	30.838
3.2874	30.773
3.2853	30.712
3.2832	30.651
3.2811	30.589
3.2790	30.525
3.2770	30.460
3.2749	30.396
3.2728	30.337
3.2708	30.285
3.2687	30.240
3.2666	30.200
3.2646	30.166
3.2625	30.135
3.2605	30.106
3.2584	30.077
3.2564	30.048
3.2543	30.017
3.2523	29.983
3.2503	29.942
3.2482	29.894
3.2462	29.837
3.2442	29.773
3.2421	29.705
3.2401	29.634
3.2381	29.564
3.2361	29.493
3.2340	29.420
3.2320	29.340
3.2300	29.252
3.2280	29.155
3.2260	29.050
3.2240	28.940
3.2220	28.828
3.2200	28.718
3.2180	28.610
3.2160	28.502
3.2140	28.395
3.2120	28.287
3.2100	28.177
3.2080	28.066
3.2060	27.952
3.2040	27.836
3.2021	27.719
3.2001	27.601
3.1981	27.483
3.1961	27.365
3.1942	27.249
3.1922	27.134
3.1902	27.019
3.1883	26.904
3.1863	26.788
3.1844	26.670
3.1824	26.552
3.1805	26.432
3.1785	26.312
3.1766	26.192
3.1746	26.073
3.1727	25.956
3.1707	25.841
3.1688	25.726
3.1669	25.612
3.1649	25.497
3.1630	25.379
3.1611	25.260
3.1591	25.137
3.1572	25.011
3.1553	24.882
3.1534	24.751
3.1515	24.621
3.1495	24.492
3.1476	24.368
3.1457	24.248
3.1438	24.131
3.1419	24.013
3.1400	23.893
3.1381	23.768
3.1362	23.640
3.1343	23.509
3.1324	23.376
3.1305	23.244
3.1286	23.113
3.1268	22.983
3.1249	22.854
3.1230	22.725
3.1211	22.593
3.1192	22.459
3.1174	22.323
3.1155	22.185
3.1136	22.047
3.1117	21.908
3.1099	21.768
3.1080	21.624
3.1061	21.477
3.1043	21.328
3.1024	21.181
3.1006	21.038
3.0987	20.903
3.0969	20.774
3.0950	20.650
3.0932	20.528
3.0913	20.404
3.0895	20.279
3.0876	20.153
3.0858	20.029
3.0840	19.908
3.0821	19.790
3.0803	19.673
3.0785	19.557
3.0766	19.442
3.0748	19.328
3.0730	19.217
3.0712	19.111
3.0694	19.009
3.0675	18.908
3.0657	18.807
3.0639	18.704
3.0621	18.600
3.0603	18.496
3.0585	18.397
3.0567	18.303
3.0549	18.214
3.0531	18.128
3.0513	18.040
3.0495	17.949
3.0477	17.855
3.0459	17.762
3.0441	17.671
3.0423	17.588
3.0406	17.514
3.0388	17.448
3.0370	17.388
3.0352	17.332
3.0334	17.277
3.0317	17.221
3.0299	17.163
3.0281	17.103
3.0264	17.041
3.0246	16.977
3.0228	16.912
3.0211	16.849
3.0193	16.792
3.0176	16.742
3.0158	16.700
3.0140	16.665
3.0123	16.636
3.0105	16.608
3.0088	16.580
3.0070	16.551
3.0053	16.521
3.0036	16.490
3.0018	16.457
3.0001	16.424
2.9984	16.390
2.9966	16.355
2.9949	16.323
2.9932	16.296
2.9914	16.278
2.9897	16.268
2.9880	16.262
2.9863	16.255
2.9845	16.241
2.9828	16.216
2.9811	16.180
2.9794	16.136
2.9777	16.089
2.9760	16.042
2.9743	15.998
2.9726	15.957
2.9709	15.918
2.9692	15.878
2.9675	15.836
2.9658	15.792
2.9641	15.747
2.9624	15.701
2.9607	15.657
2.9590	15.613
2.9573	15.570
2.9556	15.527
2.9539	15.480
2.9523	15.430
2.9506	15.379
2.9489	15.329
2.9472	15.285
2.9455	15.251
2.9439	15.228
2.9422	15.215
2.9405	15.207
2.9389	15.200
2.9372	15.190
2.9355	15.174
2.9339	15.152
2.9322	15.130
2.9306	15.109
2.9289	15.095
2.9272	15.089
2.9256	15.091
2.9239	15.101
2.9223	15.116
2.9207	15.133
2.9190	15.150
2.9174	15.167
2.9157	15.184
2.9141	15.202
2.9124	15.222
2.9108	15.245
2.9092	15.272
2.9075	15.303
2.9059	15.335
2.9043	15.368
2.9027	15.401
2.9010	15.436
2.8994	15.474
2.8978	15.514
2.8962	15.557
2.8946	15.601
2.8929	15.643
2.8913	15.681
2.8897	15.714
2.8881	15.742
2.8865	15.768
2.8849	15.794
2.8833	15.819
2.8817	15.842
2.8801	15.859
2.8785	15.869
2.8769	15.868
2.8753	15.856
2.8737	15.837
2.8721	15.811
2.8705	15.782
2.8689	15.749
2.8673	15.712
2.8658	15.667
2.8642	15.613
2.8626	15.549
2.8610	15.475
2.8594	15.390
2.8579	15.298
2.8563	15.196
2.8547	15.084
2.8531	14.960
2.8516	14.824
2.8500	14.675
2.8484	14.515
2.8469	14.348
2.8453	14.178
2.8437	14.007
2.8422	13.832
2.8406	13.654
2.8391	13.468
2.8375	13.273
2.8360	13.070
2.8344	12.859
2.8329	12.643
2.8313	12.425
2.8298	12.206
2.8282	11.988
2.8267	11.772
2.8252	11.560
2.8236	11.353
2.8221	11.151
2.8205	10.955
2.8190	10.764
2.8175	10.574
2.8159	10.383
2.8144	10.190
2.8129	9.9927
2.8114	9.7914
2.8098	9.5868
2.8083	9.3803
2.8068	9.1735
2.8053	8.9680
2.8038	8.7638
2.8022	8.5609
2.8007	8.3577
2.7992	8.1519
2.7977	7.9397
2.7962	7.7176
2.7947	7.4839
2.7932	7.2399
2.7917	6.9901
2.7902	6.7410
2.7887	6.4980
2.7872	6.2650
2.7857	6.0412
2.7842	5.8235
2.7827	5.6076
2.7812	5.3916
2.7797	5.1766
2.7782	4.9684
2.7767	4.7737
2.7752	4.5999
2.7738	4.4510
2.7723	4.3276
2.7708	4.2267
2.7693	4.1438
2.7678	4.0730
2.7664	4.0105
2.7649	3.9541
2.7634	3.9044
2.7619	3.8641
2.7605	3.8388
2.7590	3.8350
2.7575	3.8575
2.7561	3.9110
2.7546	3.9960
2.7531	4.1104
2.7517	4.2494
2.7502	4.4067
2.7488	4.5767
2.7473	4.7567
2.7458	4.9454
2.7444	5.1462
2.7429	5.3639
2.7415	5.6042
2.7400	5.8735
2.7386	6.1766
2.7371	6.5188
2.7357	6.9041
2.7343	7.3375
2.7328	7.8237
2.7314	8.3681
2.7299	8.9770
2.7285	9.6578
2.7271	10.422
2.7256	11.282
2.7242	12.253
2.7228	13.343
2.7213	14.554
2.7199	15.874
2.7185	17.282
2.7171	18.749
2.7156	20.250
2.7142	21.764
2.7128	23.282
2.7114	24.798
2.7100	26.304
2.7085	27.789
2.7071	29.234
2.7057	30.619
2.7043	31.929
2.7029	33.157
2.7015	34.308
2.7001	35.401
2.6987	36.459
2.6973	37.507
2.6959	38.566
2.6945	39.650
2.6931	40.761
2.6917	41.888
2.6903	43.012
2.6889	44.108
2.6875	45.150
2.6861	46.117
2.6847	46.995
2.6833	47.777
2.6819	48.470
2.6805	49.085
2.6791	49.635
2.6778	50.129
2.6764	50.573
2.6750	50.968
2.6736	51.315
2.6722	51.616
2.6709	51.890
2.6695	52.162
2.6681	52.458
2.6667	52.791
2.6654	53.164
2.6640	53.563
2.6626	53.957
2.6613	54.316
2.6599	54.620
2.6585	54.865
2.6572	55.059
2.6558	55.218
2.6545	55.361
2.6531	55.501
2.6517	55.639
2.6504	55.771
2.6490	55.891
2.6477	55.993
2.6463	56.078
2.6450	56.153
2.6436	56.227
2.6423	56.301
2.6409	56.373
2.6396	56.433
2.6382	56.465
2.6369	56.458
2.6356	56.410
2.6342	56.333
2.6329	56.247
2.6315	56.180
2.6302	56.153
2.6289	56.176
2.6275	56.232
2.6262	56.297
2.6249	56.342
2.6236	56.347
2.6222	56.311
2.6209	56.252
2.6196	56.203
2.6183	56.193
2.6169	56.231
2.6156	56.311
2.6143	56.405
2.6130	56.477
2.6117	56.501
2.6103	56.472
2.6090	56.410
2.6077	56.353
2.6064	56.336
2.6051	56.385
2.6038	56.492
2.6025	56.620
2.6012	56.720
2.5999	56.757
2.5986	56.729
2.5973	56.664
2.5960	56.617
2.5947	56.636
2.5934	56.746
2.5921	56.925
2.5908	57.129
2.5895	57.308
2.5882	57.432
2.5869	57.500
2.5856	57.538
2.5843	57.579
2.5830	57.647
2.5817	57.742
2.5805	57.847
2.5792	57.940
2.5779	58.004
2.5766	58.039
2.5753	58.058
2.5741	58.081
2.5728	58.125
2.5715	58.193
2.5702	58.275
2.5690	58.353
2.5677	58.408
2.5664	58.436
2.5651	58.442
2.5639	58.447
2.5626	58.471
2.5613	58.527
2.5601	58.613
2.5588	58.712
2.5575	58.805
2.5563	58.875
2.5550	58.918
2.5538	58.942
2.5525	58.958
2.5513	58.979
2.5500	59.006
2.5487	59.035
2.5475	59.058
2.5462	59.071
2.5450	59.074
2.5437	59.072
2.5425	59.073
2.5413	59.083
2.5400	59.100
2.5388	59.120
2.5375	59.136
2.5363	59.145
2.5350	59.146
2.5338	59.142
2.5326	59.137
2.5313	59.134
2.5301	59.136
2.5289	59.143
2.5276	59.152
2.5264	59.160
2.5252	59.162
2.5239	59.156
2.5227	59.140
2.5215	59.115
2.5202	59.084
2.5190	59.051
2.5178	59.021
2.5166	58.998
2.5154	58.982
2.5141	58.970
2.5129	58.959
2.5117	58.946
2.5105	58.928
2.5093	58.905
2.5081	58.879
2.5068	58.854
2.5056	58.832
2.5044	58.814
2.5032	58.798
2.5020	58.782
2.5008	58.763
2.4996	58.737
2.4984	58.706
2.4972	58.672
2.4960	58.638
2.4948	58.608
2.4936	58.585
2.4924	58.569
2.4912	58.557
2.4900	58.544
2.4888	58.526
2.4876	58.502
2.4864	58.470
2.4852	58.434
2.4840	58.395
2.4828	58.358
2.4816	58.324
2.4805	58.293
2.4793	58.265
2.4781	58.240
2.4769	58.214
2.4757	58.185
2.4745	58.153
2.4734	58.118
2.4722	58.080
2.4710	58.042
2.4698	58.005
2.4686	57.969
2.4675	57.934
2.4663	57.900
2.4651	57.866
2.4640	57.833
2.4628	57.802
2.4616	57.775
2.4604	57.751
2.4593	57.729
2.4581	57.705
2.4569	57.677
2.4558	57.642
2.4546	57.603
2.4535	57.563
2.4523	57.528
2.4511	57.499
2.4500	57.480
2.4488	57.467
2.4477	57.460
2.4465	57.457
2.4454	57.455
2.4442	57.456
2.4431	57.461
2.4419	57.472
2.4408	57.487
2.4396	57.510
2.4385	57.539
2.4373	57.576
2.4362	57.622
2.4350	57.678
2.4339	57.744
2.4327	57.817
2.4316	57.895
2.4305	57.975
2.4293	58.053
2.4282	58.130
2.4270	58.207
2.4259	58.284
2.4248	58.361
2.4236	58.436
2.4225	58.510
2.4214	58.582
2.4202	58.653
2.4191	58.726
2.4180	58.803
2.4169	58.884
2.4157	58.966
2.4146	59.047
2.4135	59.123
2.4124	59.194
2.4112	59.259
2.4101	59.318
2.4090	59.371
2.4079	59.418
2.4068	59.458
2.4056	59.489
2.4045	59.512
2.4034	59.528
2.4023	59.541
2.4012	59.554
2.4001	59.569
2.3990	59.589
2.3979	59.609
2.3967	59.628
2.3956	59.641
2.3945	59.644
2.3934	59.636
2.3923	59.620
2.3912	59.598
2.3901	59.572
2.3890	59.544
2.3879	59.513
2.3868	59.478
2.3857	59.439
2.3846	59.398
2.3835	59.355
2.3824	59.314
2.3813	59.274
2.3802	59.235
2.3791	59.195
2.3781	59.153
2.3770	59.108
2.3759	59.061
2.3748	59.016
2.3737	58.973
2.3726	58.933
2.3715	58.891
2.3704	58.845
2.3694	58.789
2.3683	58.724
2.3672	58.651
2.3661	58.574
2.3650	58.497
2.3640	58.422
2.3629	58.351
2.3618	58.283
2.3607	58.215
2.3597	58.147
2.3586	58.077
2.3575	58.005
2.3564	57.930
2.3554	57.856
2.3543	57.784
2.3532	57.718
2.3522	57.660
2.3511	57.614
2.3500	57.582
2.3490	57.565
2.3479	57.563
2.3468	57.578
2.3458	57.610
2.3447	57.656
2.3436	57.717
2.3426	57.791
2.3415	57.875
2.3405	57.969
2.3394	58.071
2.3384	58.180
2.3373	58.296
2.3363	58.417
2.3352	58.545
2.3342	58.681
2.3331	58.824
2.3321	58.974
2.3310	59.126
2.3300	59.277
2.3289	59.421
2.3279	59.557
2.3268	59.686
2.3258	59.812
2.3247	59.939
2.3237	60.072
2.3226	60.211
2.3216	60.355
2.3206	60.499
2.3195	60.642
2.3185	60.781
2.3175	60.916
2.3164	61.046
2.3154	61.172
2.3144	61.295
2.3133	61.414
2.3123	61.528
2.3113	61.640
2.3102	61.750
2.3092	61.857
2.3082	61.965
2.3071	62.072
2.3061	62.178
2.3051	62.282
2.3041	62.381
2.3030	62.473
2.3020	62.557
2.3010	62.633
2.3000	62.702
2.2990	62.767
2.2979	62.831
2.2969	62.896
2.2959	62.961
2.2949	63.023
2.2939	63.078
2.2929	63.125
2.2918	63.162
2.2908	63.191
2.2898	63.216
2.2888	63.238
2.2878	63.258
2.2868	63.274
2.2858	63.283
2.2848	63.285
2.2838	63.276
2.2828	63.256
2.2818	63.225
2.2808	63.181
2.2798	63.124
2.2787	63.053
2.2777	62.971
2.2767	62.879
2.2757	62.781
2.2747	62.680
2.2738	62.578
2.2728	62.478
2.2718	62.382
2.2708	62.290
2.2698	62.200
2.2688	62.111
2.2678	62.018
2.2668	61.919
2.2658	61.814
2.2648	61.703
2.2638	61.589
2.2628	61.476
2.2618	61.369
2.2609	61.270
2.2599	61.179
2.2589	61.096
2.2579	61.020
2.2569	60.948
2.2559	60.879
2.2550	60.812
2.2540	60.750
2.2530	60.694
2.2520	60.650
2.2510	60.616
2.2501	60.591
2.2491	60.572
2.2481	60.551
2.2471	60.523
2.2462	60.487
2.2452	60.446
2.2442	60.401
2.2433	60.357
2.2423	60.312
2.2413	60.263
2.2403	60.204
2.2394	60.131
2.2384	60.043
2.2374	59.940
2.2365	59.824
2.2355	59.697
2.2345	59.561
2.2336	59.417
2.2326	59.268
2.2317	59.119
2.2307	58.972
2.2297	58.832
2.2288	58.696
2.2278	58.563
2.2269	58.431
2.2259	58.297
2.2250	58.167
2.2240	58.048
2.2231	57.945
2.2221	57.866
2.2211	57.811
2.2202	57.779
2.2192	57.767
2.2183	57.770
2.2173	57.788
2.2164	57.819
2.2155	57.862
2.2145	57.915
2.2136	57.976
2.2126	58.040
2.2117	58.107
2.2107	58.177
2.2098	58.251
2.2088	58.335
2.2079	58.431
2.2070	58.540
2.2060	58.660
2.2051	58.789
2.2041	58.923
2.2032	59.061
2.2023	59.201
2.2013	59.343
2.2004	59.486
2.1995	59.631
2.1985	59.779
2.1976	59.933
2.1967	60.092
2.1957	60.260
2.1948	60.435
2.1939	60.615
2.1930	60.797
2.1920	60.974
2.1911	61.146
2.1902	61.313
2.1893	61.479
2.1883	61.647
2.1874	61.820
2.1865	61.997
2.1856	62.174
2.1846	62.343
2.1837	62.502
2.1828	62.650
2.1819	62.791
2.1810	62.930
2.1800	63.073
2.1791	63.220
2.1782	63.365
2.1773	63.501
2.1764	63.623
2.1755	63.727
2.1746	63.816
2.1736	63.896
2.1727	63.973
2.1718	64.054
2.1709	64.141
2.1700	64.231
2.1691	64.320
2.1682	64.404
2.1673	64.480
2.1664	64.549
2.1655	64.613
2.1646	64.674
2.1637	64.730
2.1628	64.779
2.1619	64.819
2.1610	64.849
2.1601	64.872
2.1592	64.891
2.1583	64.912
2.1574	64.940
2.1565	64.973
2.1556	65.009
2.1547	65.043
2.1538	65.069
2.1529	65.084
2.1520	65.087
2.1511	65.081
2.1502	65.071
2.1493	65.061
2.1484	65.054
2.1475	65.053
2.1466	65.054
2.1458	65.056
2.1449	65.055
2.1440	65.049
2.1431	65.040
2.1422	65.029
2.1413	65.021
2.1404	65.017
2.1396	65.019
2.1387	65.025
2.1378	65.034
2.1369	65.043
2.1360	65.049
2.1352	65.053
2.1343	65.051
2.1334	65.044
2.1325	65.034
2.1316	65.024
2.1308	65.017
2.1299	65.013
2.1290	65.013
2.1281	65.015
2.1273	65.015
2.1264	65.012
2.1255	65.004
2.1247	64.993
2.1238	64.983
2.1229	64.977
2.1220	64.977
2.1212	64.984
2.1203	64.996
2.1194	65.010
2.1186	65.024
2.1177	65.038
2.1168	65.050
2.1160	65.059
2.1151	65.065
2.1143	65.066
2.1134	65.060
2.1125	65.048
2.1117	65.035
2.1108	65.026
2.1100	65.026
2.1091	65.038
2.1082	65.060
2.1074	65.089
2.1065	65.121
2.1057	65.151
2.1048	65.179
2.1040	65.205
2.1031	65.231
2.1023	65.257
2.1014	65.286
2.1005	65.318
2.0997	65.352
2.0988	65.386
2.0980	65.419
2.0971	65.446
2.0963	65.464
2.0955	65.476
2.0946	65.484
2.0938	65.493
2.0929	65.508
2.0921	65.530
2.0912	65.558
2.0904	65.590
2.0895	65.619
2.0887	65.643
2.0879	65.659
2.0870	65.665
2.0862	65.660
2.0853	65.653
2.0845	65.630
2.0837	65.615
2.0828	65.623
2.0820	65.586
2.0812	65.685
2.0803	65.735
2.0795	65.704
2.0760	65.704
2.0720	66.268
2.0680	66.720
2.0640	66.640
2.0600	66.607
2.0560	67.232
2.0520	67.046
2.0480	66.352
2.0440	65.981
2.0400	65.882
2.0360	65.826
2.0320	65.549
2.0280	65.050
2.0240	64.828
2.0200	65.086
2.0160	65.086
2.0120	65.086
2.0080	64.717
2.0040	64.607
2.0000	64.279
1.9960	64.035
1.9920	64.279
1.9880	64.025
1.9840	63.608
1.9800	62.745
1.9760	62.760
1.9720	62.708
1.9680	62.655
1.9640	62.617
1.9600	62.189
1.9560	61.815
1.9520	62.103
1.9480	61.922
1.9440	61.598
1.9400	61.326
1.9360	60.925
1.9320	60.728
1.9280	60.856
1.9240	60.997
1.9200	60.733
1.9160	60.363
1.9120	59.747
1.9080	59.727
1.9040	59.901
1.9000	60.392
1.8960	61.405
1.8920	61.621
1.8880	61.648
1.8840	61.441
1.8800	61.529
1.8760	61.898
1.8720	61.949
1.8680	62.170
1.8640	62.941
1.8600	63.878
1.8560	64.744
1.8520	64.908
1.8480	64.397
1.8440	63.394
1.8400	62.943
1.8360	63.163
1.8320	63.707
1.8280	64.100
1.8240	63.966
1.8200	63.666
1.8160	63.351
1.8120	62.810
1.8080	62.825
1.8040	63.033
1.8000	62.737
1.7960	62.649
1.7920	62.244
1.7880	61.814
1.7840	62.054
1.7800	62.068
1.7760	61.942
1.7720	61.867
1.7680	61.779
1.7640	61.538
1.7600	61.311
1.7560	61.261
1.7520	61.437
1.7480	61.287
1.7440	61.073
1.7400	61.324
1.7360	61.047
1.7320	60.794
1.7280	60.856
1.7240	60.906
1.7200	61.095
1.7160	61.196
1.7120	61.184
1.7080	60.882
1.7040	60.894
1.7000	60.391
1.6960	60.342
1.6920	60.391
1.6880	60.303
1.6840	60.049
1.6800	60.127
1.6760	59.901
1.6720	59.588
1.6680	59.402
1.6640	59.158
1.6600	59.401
1.6560	59.070
1.6520	59.030
1.6480	58.709
1.6440	58.445
1.6400	58.685
1.6360	58.589
1.6320	58.277
1.6280	58.476
1.6240	58.243
1.6200	58.101
1.6160	57.918
1.6120	58.012
1.6080	57.836
1.6040	57.572
1.6000	57.214
1.5960	57.126
1.5920	56.924
1.5880	56.929
1.5840	56.617
1.5800	56.570
1.5760	56.570
1.5720	56.431
1.5680	56.431
1.5640	56.212
1.5600	55.743
1.5560	55.719
1.5520	55.701
1.5480	55.902
1.5440	55.524
1.5400	55.080
1.5360	54.683
1.5320	54.552
1.5280	54.420
1.5240	54.245
1.5200	54.464
1.5160	54.686
1.5120	54.421
1.5080	54.157
1.5040	53.416
1.5000	53.236
1.4960	53.101
1.4920	53.361
1.4880	53.846
1.4840	52.799
1.4800	52.703
1.4760	52.527
1.4720	52.220
1.4680	52.047
1.4640	51.882
1.4600	51.871
1.4560	51.400
1.4520	51.230
1.4480	51.008
1.4440	50.581
1.4400	50.074
1.4360	49.811
1.4320	49.706
1.4280	49.701
1.4240	49.350
1.4200	48.872
1.4160	48.218
1.4120	47.354
1.4080	46.618
1.4040	46.543
1.4000	46.855
1.3960	47.493
1.3920	48.085
1.3880	48.384
1.3840	48.344
1.3800	48.046
1.3760	48.046
1.3720	48.593
1.3680	48.773
1.3640	48.027
1.3600	47.080
1.3560	46.891
1.3520	47.708
1.3480	48.194
1.3440	48.125
1.3400	47.417
1.3360	46.739
1.3320	46.182
1.3280	45.922
1.3240	46.018
1.3200	46.063
1.3160	45.962
1.3120	45.545
1.3080	45.349
1.3040	45.015
1.3000	44.770
1.2960	44.508
1.2920	44.352
1.2880	44.073
1.2840	43.723
1.2800	43.599
1.2760	43.421
1.2720	43.241
1.2680	43.257
1.2640	43.413
1.2600	43.170
1.2560	43.355
1.2520	43.255
1.2480	43.181
1.2440	42.911
1.2400	42.981
1.2360	42.870
1.2320	42.586
1.2280	42.006
1.2240	41.646
1.2200	41.501
1.2160	41.592
1.2120	41.387
1.2080	41.318
1.2040	41.329
1.2000	40.634
1.1960	40.060
1.1920	39.812
1.1880	39.661
1.1840	39.391
1.1800	39.241
1.1760	39.092
1.1720	38.943
1.1680	38.672
1.1640	38.350
1.1600	38.328
1.1560	37.826
1.1520	37.798
1.1480	37.829
1.1440	37.753
1.1400	37.991
1.1360	38.164
1.1320	37.845
1.1280	37.836
1.1240	37.696
1.1200	37.697
1.1160	37.608
1.1120	37.132
1.1080	37.014
1.1040	36.629
1.1000	37.103
1.0960	37.132
1.0920	37.429
1.0880	37.053
1.0840	36.935
1.0800	36.759
1.0760	36.935
1.0720	36.847
1.0680	36.875
1.0640	36.819
1.0600	36.565
1.0560	36.565
1.0520	36.555
1.0480	36.612
1.0440	36.155
1.0400	36.420
1.0360	36.477
1.0320	36.492
1.0280	36.644
1.0240	36.672
1.0200	36.534
1.0160	36.414
1.0120	36.550
1.0080	36.378
1.0040	36.177
1.0000	36.148
0.99600	36.290
0.99200	36.641
0.98800	36.318
0.98400	36.145
0.98000	35.948
0.97600	36.088
0.97200	36.028
0.96800	35.968
0.96400	35.940
0.96000	35.792
0.95600	35.847
0.95200	35.781
0.94800	35.697
0.94400	35.837
0.94000	35.693
0.93600	35.605
0.93200	35.605
0.92800	35.609
0.92400	35.466
0.92000	35.345
0.91600	35.373
0.91200	35.367
0.90800	35.488
0.90400	35.450
0.90000	35.390
0.89600	35.423
0.89200	35.362
0.88800	35.274
0.88400	35.546
0.88000	35.597
0.87600	35.569
0.87200	35.509
0.86800	35.650
0.86400	35.763
0.86000	35.782
0.85600	35.754
0.85200	35.839
0.84800	35.674
0.84400	35.754
0.84000	35.552
0.83600	35.868
0.83200	35.580
0.82800	35.849
0.82400	35.843
0.82000	35.818
0.81600	35.733
0.81200	35.733
0.80800	35.630
0.80400	35.434
0.80000	35.351
0.79900	35.351
0.79800	35.351
0.79700	35.506
0.79600	35.286
0.79500	35.351
0.79400	35.224
0.79300	35.005
0.79200	35.071
0.79100	34.879
0.79000	34.969
0.78900	35.062
0.78800	34.837
0.78700	34.930
0.78600	34.864
0.78500	34.961
0.78400	34.961
0.78300	34.798
0.78200	34.737
0.78100	34.866
0.78000	34.764
0.77900	34.698
0.77800	34.701
0.77700	34.641
0.77600	34.291
0.77500	34.413
0.77400	34.258
0.77300	34.254
0.77200	34.474
0.77100	34.284
0.77000	34.381
0.76900	34.378
0.76800	34.191
0.76700	34.378
0.76600	34.564
0.76500	34.378
0.76400	34.311
0.76300	33.991
0.76200	33.777
0.76100	33.932
0.76000	33.768
0.75900	33.924
0.75800	33.857
0.75700	33.886
0.75600	33.827
0.75500	33.798
0.75400	33.827
0.75300	33.857
0.75200	33.701
0.75100	33.672
0.75000	33.604
0.74900	33.604
0.74800	33.517
0.74700	33.850
0.74600	33.751
0.74500	33.888
0.74400	33.947
0.74300	33.791
0.74200	33.703
0.74100	33.746
0.74000	33.970
0.73900	33.791
0.73800	33.888
0.73700	34.014
0.73600	33.501
0.73500	33.501
0.73400	33.440
0.73300	33.657
0.73200	34.000
0.73100	33.940
0.73000	33.686
0.72900	33.775
0.72800	33.751
0.72700	33.686
0.72600	33.488
0.72500	33.589
0.72400	33.589
0.72300	33.413
0.72200	33.703
0.72100	33.657
0.72000	33.560
0.71900	33.560
0.71800	33.775
0.71700	33.940
0.71600	33.372
0.71500	33.746
0.71400	33.759
0.71300	33.827
0.71200	33.900
0.71100	33.472
0.71000	33.472
0.70900	33.259
0.70800	33.172
0.70700	33.686
0.70600	33.773
0.70500	33.990
0.70400	33.990
0.70300	34.034
0.70200	33.832
0.70100	33.995
0.70000	33.867
0.69900	33.945
0.69800	33.863
0.69700	33.864
0.69600	34.515
0.69500	34.319
0.69400	34.257
0.69300	34.070
0.69200	34.070
0.69100	34.063
0.69000	34.132
0.68900	34.488
0.68800	34.194
0.68700	34.263
0.68600	34.263
0.68500	34.357
0.68400	34.294
0.68300	34.357
0.68200	34.653
0.68100	34.388
0.68000	34.495
0.67900	34.201
0.67800	34.201
0.67700	34.716
0.67600	34.753
0.67500	34.759
0.67400	34.690
0.67300	34.658
0.67200	34.401
0.67100	34.790
0.67000	34.859
0.66900	34.763
0.66800	35.020
0.66700	34.982
0.66600	35.019
0.66500	34.859
0.66400	34.795
0.66300	34.922
0.66200	35.153
0.66100	35.120
0.66000	35.123
0.65900	35.321
0.65800	35.521
0.65700	35.519
0.65600	35.453
0.65500	35.423
0.65400	35.250
0.65300	35.218
0.65200	35.213
0.65100	35.550
0.65000	35.452
0.64900	35.624
0.64800	35.524
0.64700	35.622
0.64600	35.655
0.64500	35.723
0.64400	35.624
0.64300	35.624
0.64200	35.690
0.64100	35.858
0.64000	35.858
0.63900	36.060
0.63800	35.654
0.63700	35.791
0.63600	35.960
0.63500	36.028
0.63400	35.960
0.63300	36.061
0.63200	36.094
0.63100	36.128
0.63000	36.431
0.62900	36.229
0.62800	36.229
0.62700	36.128
0.62600	36.027
0.62500	36.128
0.62400	36.060
0.62300	36.195
0.62200	36.296
0.62100	36.262
0.62000	36.195
0.61900	36.296
0.61800	36.533
0.61700	36.465
0.61600	36.634
0.61500	36.566
0.61400	36.364
0.61300	36.296
0.61200	36.330
0.61100	36.532
0.61000	36.633
0.60900	36.633
0.60800	36.633
0.60700	36.667
0.60600	36.736
0.60500	36.770
0.60400	36.770
0.60300	36.735
0.60200	36.977
0.60100	37.014
0.60000	36.909
0.59900	36.875
0.59800	36.809
0.59700	36.775
0.59600	37.224
0.59500	37.123
0.59400	37.260
0.59300	37.088
0.59200	36.915
0.59100	37.224
0.59000	36.913
0.58900	37.053
0.58800	37.088
0.58700	37.327
0.58600	37.327
0.58500	37.222
0.58400	37.431
0.58300	37.434
0.58200	37.119
0.58100	37.398
0.58000	37.431
0.57900	37.502
0.57800	37.431
0.57700	37.534
0.57600	37.431
0.57500	37.431
0.57400	37.424
0.57300	37.554
0.57200	37.680
0.57100	37.547
0.57000	37.617
0.56900	37.785
0.56800	37.851
0.56700	37.446
0.56600	37.379
0.56500	37.278
0.56400	37.379
0.56300	37.344
0.56200	37.243
0.56100	37.109
0.56000	37.111
0.55900	37.633
0.55800	37.636
0.55700	37.537
0.55600	37.239
0.55500	36.914
0.55400	36.914
0.55300	36.946
0.55200	37.075
0.55100	36.984
0.55000	36.986
0.54900	37.423
0.54800	37.323
0.54700	36.988
0.54600	37.289
0.54500	37.118
0.54400	36.987
0.54300	37.253
0.54200	37.187
0.54100	37.193
0.54000	37.055
0.53900	36.988
0.53800	37.023
0.53700	37.395
0.53600	37.258
0.53500	37.258
0.53400	37.261
0.53300	37.026
0.53200	36.891
0.53100	37.023
0.53000	37.125
0.52900	37.060
0.52800	36.994
0.52700	36.893
0.52600	36.892
0.52500	36.927
0.52400	36.896
0.52300	36.463
0.52200	36.331
0.52100	36.496
0.52000	36.364
0.51900	36.630
0.51800	36.431
0.51700	36.398
0.51600	36.563
0.51500	36.233
0.51400	36.005
0.51300	36.035
0.51200	36.331
0.51100	36.135
0.51000	36.134
0.50900	36.397
0.50800	35.743
0.50700	35.644
0.50600	35.454
0.50500	35.545
0.50400	35.542
0.50300	35.447
0.50200	35.640
0.50100	35.348
0.50000	35.379
0.49900	35.443
0.49800	35.316
0.49700	35.443
0.49600	35.021
0.49500	35.016
0.49400	34.927
0.49300	34.390
0.49200	34.797
0.49100	34.726
0.49000	34.917
0.48900	34.467
0.48800	34.437
0.48700	34.278
0.48600	34.113
0.48500	34.015
0.48400	34.111
0.48300	34.135
0.48200	34.348
0.48100	34.226
0.48000	34.036
0.47900	33.653
0.47800	33.379
0.47700	33.379
0.47600	33.339
0.47500	33.112
0.47400	32.984
0.47300	32.996
0.47200	32.898
0.47100	32.858
0.47000	32.801
0.46900	32.521
0.46800	32.325
0.46700	32.381
0.46600	32.423
0.46500	32.338
0.46400	32.046
0.46300	32.195
0.46200	31.792
0.46100	31.918
0.46000	31.669
0.45900	31.599
0.45800	31.591
0.45700	31.394
0.45600	31.252
0.45500	30.991
0.45400	30.918
0.45300	30.731
0.45200	30.579
0.45100	30.814
0.45000	30.741
0.44900	30.714
0.44800	30.406
0.44700	30.641
0.44600	30.662
0.44500	30.223
0.44400	29.809
0.44300	29.891
0.44200	30.046
0.44100	29.807
0.44000	29.702
0.43900	29.132
0.43800	29.282
0.43700	29.617
0.43600	29.339
0.43500	29.026
0.43400	28.971
0.43300	29.124
0.43200	28.864
0.43100	28.764
0.43000	28.395
0.42900	28.539
0.42800	28.212
0.42700	28.150
0.42600	28.103
0.42500	27.819
0.42400	27.468
0.42300	27.586
0.42200	27.265
0.42100	27.350
0.42000	27.514
0.41900	27.142
0.41800	26.967
0.41700	26.759
0.41600	26.759
0.41500	26.759
0.41400	26.465
0.41300	26.248
0.41200	26.441
0.41100	26.227
0.41000	26.103
0.40900	25.853
0.40800	25.934
0.40700	25.684
0.40600	25.684
0.40500	25.284
0.40400	24.987
0.40300	24.992
0.40200	24.976
0.40100	24.849
0.40000	24.613
0.0000	
