Name: Shale (Arenaceous)
Type:  Rocks
Class:  Sedimentary
Subclass: Shale 
Particle Size:  0 - 75 Micrometers
Sample No.:  shale.1
Owner:  JHU
Wavelength Range:  All
Origin:  Sample No. 387,  The Hunt and Salisbury Collection at the U.S. 
Geological Survey, Denver, Co.
Description: A well-sorted sample, consisting of medium fine-grained 
subangular to subrounded quartz grains set in an abundant matrix of 
yellowish-brown clay (kaolinite and/or illite?). The quartz grains 
contain numerous fluid inclusions, and there are trace amounts of 
plagioclase, tourmaline (schorlite), microcline, and opaques.

Measurement:  Directional (10 Degree) Hemispherical Reflectance
First Column:  X
Second Column:  Y  
X Units:  Wavelength (micrometers)
Y Units:  Reflectance (percent)
First X Value: 14.0112
Last X Value:  0.4
Number of X Values: 2844
Additional Information:  None

14.983	2.0186
14.940	1.9073
14.897	1.7378
14.854	1.5523
14.812	1.4169
14.770	1.4098
14.728	1.4801
14.686	1.5232
14.645	1.4917
14.603	1.4064
14.562	1.2895
14.521	1.1706
14.481	1.0751
14.441	1.0202
14.400	0.99130
14.361	0.97640
14.321	0.97140
14.281	0.99080
14.242	1.0515
14.203	1.1590
14.164	1.3127
14.126	1.4924
14.087	1.6819
14.049	1.8803
14.011	2.0688
13.973	2.2341
13.936	2.3788
13.899	2.5126
13.861	2.6417
13.824	2.7530
13.788	2.8420
13.751	2.9138
13.715	2.9585
13.679	2.9716
13.643	2.9593
13.607	2.9330
13.571	2.8958
13.536	2.8423
13.500	2.7715
13.465	2.6879
13.430	2.5953
13.396	2.5012
13.361	2.4179
13.327	2.3570
13.293	2.3243
13.259	2.3168
13.225	2.3267
13.191	2.3461
13.158	2.3693
13.124	2.3907
13.091	2.4065
13.058	2.4091
13.026	2.3888
12.993	2.3355
12.960	2.2457
12.928	2.1242
12.896	1.9821
12.864	1.8339
12.832	1.6992
12.800	1.5926
12.769	1.5187
12.737	1.4803
12.706	1.4723
12.675	1.4820
12.644	1.4929
12.614	1.4858
12.583	1.4548
12.552	1.3979
12.522	1.3169
12.492	1.2284
12.462	1.1526
12.432	1.1062
12.402	1.1040
12.373	1.1561
12.343	1.2660
12.314	1.4237
12.285	1.6134
12.256	1.8240
12.227	2.0409
12.198	2.2533
12.169	2.4589
12.141	2.6578
12.113	2.8475
12.084	3.0270
12.056	3.1987
12.028	3.3659
12.000	3.5319
11.973	3.6991
11.945	3.8670
11.918	4.0346
11.890	4.1995
11.863	4.3591
11.836	4.5123
11.809	4.6572
11.782	4.7915
11.755	4.9063
11.729	4.9930
11.702	5.0510
11.676	5.0792
11.650	5.0818
11.624	5.0671
11.598	5.0387
11.572	4.9961
11.546	4.9352
11.520	4.8569
11.495	4.7628
11.469	4.6525
11.444	4.5381
11.419	4.4315
11.394	4.3361
11.369	4.2506
11.344	4.1722
11.319	4.0981
11.294	4.0211
11.270	3.9328
11.245	3.8303
11.221	3.7109
11.197	3.5724
11.173	3.4146
11.149	3.2430
11.125	3.0634
11.101	2.8804
11.077	2.7004
11.054	2.5273
11.030	2.3644
11.007	2.2142
10.983	2.0804
10.960	1.9722
10.937	1.8924
10.914	1.8379
10.891	1.8083
10.868	1.8005
10.846	1.8086
10.823	1.8247
10.800	1.8450
10.778	1.8713
10.755	1.8990
10.733	1.9187
10.711	1.9255
10.689	1.9222
10.667	1.9151
10.645	1.9104
10.623	1.9177
10.602	1.9492
10.580	2.0075
10.558	2.0833
10.537	2.1688
10.516	2.2585
10.494	2.3442
10.473	2.4153
10.452	2.4690
10.431	2.5079
10.410	2.5337
10.389	2.5465
10.368	2.5541
10.348	2.5638
10.327	2.5749
10.306	2.5837
10.286	2.5905
10.266	2.5927
10.245	2.5872
10.225	2.5716
10.205	2.5493
10.185	2.5247
10.165	2.5001
10.145	2.4766
10.125	2.4572
10.106	2.4392
10.086	2.4236
10.066	2.4089
10.047	2.3961
10.027	2.3876
10.008	2.3836
9.9887	2.3836
9.9695	2.3847
9.9504	2.3821
9.9313	2.3743
9.9123	2.3570
9.8934	2.3288
9.8746	2.2940
9.8558	2.2599
9.8371	2.2360
9.8185	2.2308
9.7999	2.2498
9.7814	2.2933
9.7630	2.3532
9.7447	2.4188
9.7264	2.4823
9.7082	2.5382
9.6900	2.5844
9.6719	2.6220
9.6539	2.6516
9.6360	2.6777
9.6181	2.7042
9.6003	2.7321
9.5825	2.7622
9.5649	2.7961
9.5472	2.8330
9.5297	2.8707
9.5122	2.9053
9.4948	2.9420
9.4774	2.9865
9.4601	3.0365
9.4429	3.0902
9.4257	3.1478
9.4086	3.2053
9.3916	3.2600
9.3746	3.3112
9.3577	3.3628
9.3408	3.4123
9.3240	3.4495
9.3073	3.4689
9.2906	3.4689
9.2740	3.4483
9.2574	3.4128
9.2409	3.3687
9.2245	3.3218
9.2081	3.2688
9.1918	3.2062
9.1755	3.1364
9.1593	3.0616
9.1431	2.9855
9.1270	2.9143
9.1110	2.8484
9.0950	2.7857
9.0791	2.7165
9.0632	2.6400
9.0474	2.5626
9.0316	2.4889
9.0159	2.4274
9.0003	2.3904
8.9847	2.3864
8.9691	2.4188
8.9536	2.4809
8.9382	2.5661
8.9228	2.6642
8.9075	2.7589
8.8922	2.8366
8.8770	2.8937
8.8618	2.9294
8.8467	2.9465
8.8316	2.9474
8.8166	2.9394
8.8016	2.9266
8.7867	2.9088
8.7718	2.8877
8.7570	2.8681
8.7422	2.8472
8.7275	2.8198
8.7129	2.7826
8.6982	2.7345
8.6837	2.6689
8.6692	2.5829
8.6547	2.4882
8.6403	2.4051
8.6259	2.3483
8.6116	2.3307
8.5973	2.3592
8.5830	2.4276
8.5688	2.5133
8.5547	2.5957
8.5406	2.6642
8.5266	2.7139
8.5126	2.7456
8.4986	2.7670
8.4847	2.7840
8.4708	2.7992
8.4570	2.8134
8.4432	2.8276
8.4295	2.8413
8.4158	2.8555
8.4022	2.8747
8.3886	2.9012
8.3750	2.9323
8.3615	2.9661
8.3481	3.0057
8.3347	3.0504
8.3213	3.1016
8.3079	3.1610
8.2946	3.2323
8.2814	3.3176
8.2682	3.4137
8.2550	3.5181
8.2419	3.6294
8.2288	3.7431
8.2158	3.8537
8.2028	3.9517
8.1898	4.0292
8.1769	4.0806
8.1640	4.0986
8.1512	4.0770
8.1384	4.0181
8.1256	3.9274
8.1129	3.8125
8.1002	3.6811
8.0876	3.5428
8.0750	3.4068
8.0624	3.2756
8.0499	3.1506
8.0374	3.0362
8.0250	2.9311
8.0126	2.8326
8.0002	2.7362
7.9879	2.6391
7.9756	2.5389
7.9634	2.4330
7.9512	2.3246
7.9390	2.2168
7.9268	2.1119
7.9147	2.0129
7.9027	1.9199
7.8906	1.8346
7.8786	1.7584
7.8667	1.6913
7.8548	1.6347
7.8429	1.5883
7.8310	1.5549
7.8192	1.5336
7.8075	1.5225
7.7957	1.5196
7.7840	1.5223
7.7723	1.5260
7.7607	1.5289
7.7491	1.5308
7.7375	1.5324
7.7260	1.5331
7.7145	1.5346
7.7031	1.5376
7.6916	1.5410
7.6802	1.5417
7.6689	1.5417
7.6575	1.5424
7.6462	1.5421
7.6350	1.5433
7.6238	1.5492
7.6126	1.5599
7.6014	1.5744
7.5903	1.5907
7.5792	1.6111
7.5681	1.6343
7.5571	1.6568
7.5461	1.6814
7.5351	1.7070
7.5242	1.7304
7.5133	1.7503
7.5024	1.7693
7.4916	1.7903
7.4807	1.8140
7.4700	1.8398
7.4592	1.8687
7.4485	1.8983
7.4378	1.9248
7.4272	1.9502
7.4165	1.9793
7.4059	2.0118
7.3954	2.0454
7.3848	2.0790
7.3743	2.1131
7.3639	2.1470
7.3534	2.1818
7.3430	2.2201
7.3326	2.2637
7.3222	2.3080
7.3119	2.3518
7.3016	2.3985
7.2914	2.4503
7.2811	2.5107
7.2709	2.5813
7.2607	2.6599
7.2506	2.7416
7.2404	2.8217
7.2303	2.8977
7.2203	2.9687
7.2102	3.0320
7.2002	3.0862
7.1902	3.1343
7.1803	3.1785
7.1703	3.2221
7.1604	3.2709
7.1506	3.3287
7.1407	3.3933
7.1309	3.4570
7.1211	3.5165
7.1113	3.5726
7.1016	3.6230
7.0919	3.6664
7.0822	3.7064
7.0725	3.7460
7.0629	3.7843
7.0533	3.8210
7.0437	3.8636
7.0341	3.9200
7.0246	3.9889
7.0151	4.0666
7.0056	4.1492
6.9962	4.2317
6.9867	4.3134
6.9773	4.3955
6.9679	4.4839
6.9586	4.5829
6.9493	4.6899
6.9400	4.7995
6.9307	4.9052
6.9214	4.9997
6.9122	5.0797
6.9030	5.1427
6.8938	5.1922
6.8847	5.2339
6.8755	5.2734
6.8664	5.3182
6.8573	5.3762
6.8483	5.4461
6.8393	5.5185
6.8302	5.5853
6.8213	5.6447
6.8123	5.6957
6.8034	5.7364
6.7944	5.7714
6.7855	5.8089
6.7767	5.8486
6.7678	5.8825
6.7590	5.9083
6.7502	5.9287
6.7414	5.9457
6.7327	5.9621
6.7239	5.9848
6.7152	6.0215
6.7065	6.0786
6.6979	6.1612
6.6892	6.2659
6.6806	6.3817
6.6720	6.4985
6.6634	6.6036
6.6549	6.6853
6.6464	6.7403
6.6378	6.7817
6.6294	6.8279
6.6209	6.8724
6.6124	6.9029
6.6040	6.9157
6.5956	6.9046
6.5872	6.8688
6.5789	6.8231
6.5705	6.7926
6.5622	6.8006
6.5539	6.8570
6.5456	6.9662
6.5374	7.1222
6.5292	7.3100
6.5209	7.5153
6.5128	7.7297
6.5046	7.9407
6.4964	8.1476
6.4883	8.3622
6.4802	8.5808
6.4721	8.7897
6.4640	8.9682
6.4560	9.0914
6.4480	9.1463
6.4399	9.1326
6.4320	9.0715
6.4240	8.9964
6.4160	8.9251
6.4081	8.8733
6.4002	8.8335
6.3923	8.7731
6.3844	8.6696
6.3766	8.5180
6.3687	8.3281
6.3609	8.1183
6.3531	7.9047
6.3454	7.7088
6.3376	7.5386
6.3299	7.3775
6.3221	7.2089
6.3144	7.0277
6.3068	6.8333
6.2991	6.6282
6.2914	6.4187
6.2838	6.2164
6.2762	6.0308
6.2686	5.8605
6.2611	5.6997
6.2535	5.5474
6.2460	5.4065
6.2385	5.2817
6.2310	5.1737
6.2235	5.0785
6.2160	4.9959
6.2086	4.9291
6.2011	4.8784
6.1937	4.8486
6.1863	4.8516
6.1790	4.8926
6.1716	4.9667
6.1643	5.0631
6.1570	5.1702
6.1496	5.2779
6.1424	5.3769
6.1351	5.4664
6.1278	5.5564
6.1206	5.6537
6.1134	5.7610
6.1062	5.8820
6.0990	6.0173
6.0918	6.1537
6.0847	6.2756
6.0776	6.3791
6.0704	6.4741
6.0633	6.5709
6.0563	6.6765
6.0492	6.8092
6.0421	6.9816
6.0351	7.1736
6.0281	7.3553
6.0211	7.5082
6.0141	7.6300
6.0071	7.7185
6.0002	7.7766
5.9932	7.8185
5.9863	7.8635
5.9794	7.9073
5.9725	7.9338
5.9657	7.9423
5.9588	7.9445
5.9520	7.9542
5.9451	7.9956
5.9383	8.0865
5.9315	8.2462
5.9247	8.4678
5.9180	8.7165
5.9112	8.9685
5.9045	9.2117
5.8978	9.4468
5.8911	9.6919
5.8844	9.9550
5.8777	10.251
5.8711	10.576
5.8644	10.900
5.8578	11.199
5.8512	11.456
5.8446	11.672
5.8380	11.859
5.8314	12.038
5.8249	12.235
5.8184	12.472
5.8118	12.748
5.8053	13.035
5.7988	13.296
5.7923	13.515
5.7859	13.688
5.7794	13.825
5.7730	13.953
5.7666	14.105
5.7602	14.302
5.7538	14.523
5.7474	14.735
5.7410	14.924
5.7347	15.074
5.7283	15.180
5.7220	15.252
5.7157	15.306
5.7094	15.348
5.7031	15.372
5.6969	15.363
5.6906	15.316
5.6844	15.227
5.6782	15.085
5.6719	14.887
5.6657	14.634
5.6596	14.332
5.6534	14.001
5.6472	13.664
5.6411	13.348
5.6349	13.075
5.6288	12.847
5.6227	12.662
5.6166	12.510
5.6106	12.380
5.6045	12.266
5.5984	12.164
5.5924	12.079
5.5864	12.016
5.5804	11.980
5.5744	11.978
5.5684	12.008
5.5624	12.060
5.5564	12.122
5.5505	12.189
5.5445	12.259
5.5386	12.333
5.5327	12.412
5.5268	12.497
5.5209	12.587
5.5151	12.673
5.5092	12.751
5.5033	12.822
5.4975	12.894
5.4917	12.973
5.4859	13.069
5.4801	13.192
5.4743	13.347
5.4685	13.524
5.4628	13.708
5.4570	13.875
5.4513	13.997
5.4455	14.047
5.4398	14.012
5.4341	13.894
5.4284	13.697
5.4228	13.432
5.4171	13.111
5.4114	12.738
5.4058	12.313
5.4002	11.846
5.3945	11.353
5.3889	10.861
5.3833	10.395
5.3778	9.9799
5.3722	9.6322
5.3666	9.3580
5.3611	9.1584
5.3555	9.0317
5.3500	8.9722
5.3445	8.9730
5.3390	9.0203
5.3335	9.0994
5.3280	9.1977
5.3225	9.3057
5.3171	9.4193
5.3116	9.5425
5.3062	9.6808
5.3008	9.8402
5.2954	10.025
5.2900	10.239
5.2846	10.485
5.2792	10.763
5.2738	11.069
5.2684	11.407
5.2631	11.773
5.2578	12.164
5.2524	12.581
5.2471	13.024
5.2418	13.486
5.2365	13.957
5.2312	14.423
5.2260	14.863
5.2207	15.257
5.2154	15.589
5.2102	15.854
5.2050	16.052
5.1998	16.190
5.1945	16.275
5.1893	16.318
5.1842	16.330
5.1790	16.319
5.1738	16.298
5.1686	16.275
5.1635	16.260
5.1584	16.253
5.1532	16.256
5.1481	16.270
5.1430	16.301
5.1379	16.351
5.1328	16.420
5.1277	16.509
5.1227	16.612
5.1176	16.719
5.1126	16.812
5.1075	16.878
5.1025	16.910
5.0975	16.903
5.0925	16.861
5.0875	16.801
5.0825	16.741
5.0775	16.697
5.0726	16.678
5.0676	16.691
5.0627	16.733
5.0577	16.797
5.0528	16.875
5.0479	16.954
5.0430	17.026
5.0380	17.088
5.0332	17.139
5.0283	17.186
5.0234	17.236
5.0185	17.299
5.0137	17.383
5.0088	17.493
5.0040	17.634
4.9992	17.814
4.9944	18.042
4.9896	18.330
4.9848	18.688
4.9800	19.122
4.9752	19.627
4.9704	20.185
4.9657	20.765
4.9609	21.329
4.9562	21.841
4.9514	22.283
4.9467	22.650
4.9420	22.959
4.9373	23.243
4.9326	23.545
4.9279	23.900
4.9232	24.336
4.9186	24.871
4.9139	25.507
4.9092	26.233
4.9046	27.024
4.9000	27.850
4.8953	28.673
4.8907	29.457
4.8861	30.181
4.8815	30.831
4.8769	31.408
4.8723	31.915
4.8678	32.364
4.8632	32.766
4.8586	33.128
4.8541	33.455
4.8495	33.756
4.8450	34.034
4.8405	34.292
4.8360	34.535
4.8315	34.767
4.8270	34.992
4.8225	35.209
4.8180	35.421
4.8135	35.628
4.8090	35.828
4.8046	36.023
4.8001	36.212
4.7957	36.397
4.7913	36.576
4.7868	36.745
4.7824	36.906
4.7780	37.056
4.7736	37.194
4.7692	37.319
4.7648	37.432
4.7605	37.534
4.7561	37.624
4.7517	37.703
4.7474	37.771
4.7431	37.831
4.7387	37.885
4.7344	37.934
4.7301	37.978
4.7258	38.014
4.7215	38.035
4.7172	38.034
4.7129	38.004
4.7086	37.943
4.7043	37.854
4.7000	37.744
4.6958	37.625
4.6915	37.516
4.6873	37.442
4.6831	37.420
4.6788	37.463
4.6746	37.572
4.6704	37.737
4.6662	37.939
4.6620	38.158
4.6578	38.383
4.6536	38.611
4.6495	38.839
4.6453	39.068
4.6411	39.299
4.6370	39.531
4.6328	39.758
4.6287	39.975
4.6246	40.180
4.6205	40.373
4.6163	40.553
4.6122	40.722
4.6081	40.880
4.6040	41.029
4.6000	41.166
4.5959	41.290
4.5918	41.402
4.5877	41.503
4.5837	41.593
4.5796	41.673
4.5756	41.746
4.5716	41.811
4.5675	41.866
4.5635	41.908
4.5595	41.934
4.5555	41.944
4.5515	41.934
4.5475	41.903
4.5435	41.855
4.5395	41.790
4.5356	41.703
4.5316	41.595
4.5276	41.463
4.5237	41.305
4.5197	41.124
4.5158	40.926
4.5119	40.722
4.5080	40.524
4.5040	40.339
4.5001	40.181
4.4962	40.050
4.4923	39.947
4.4884	39.869
4.4846	39.813
4.4807	39.774
4.4768	39.758
4.4730	39.769
4.4691	39.816
4.4652	39.902
4.4614	40.026
4.4576	40.179
4.4537	40.347
4.4499	40.515
4.4461	40.674
4.4423	40.821
4.4385	40.956
4.4347	41.083
4.4309	41.207
4.4271	41.330
4.4233	41.456
4.4196	41.585
4.4158	41.720
4.4120	41.863
4.4083	42.016
4.4045	42.175
4.4008	42.338
4.3971	42.503
4.3934	42.670
4.3896	42.838
4.3859	43.005
4.3822	43.171
4.3785	43.335
4.3748	43.493
4.3711	43.644
4.3674	43.790
4.3638	43.931
4.3601	44.064
4.3564	44.188
4.3528	44.304
4.3491	44.411
4.3455	44.507
4.3418	44.597
4.3382	44.681
4.3346	44.758
4.3310	44.829
4.3273	44.894
4.3237	44.951
4.3201	44.996
4.3165	45.028
4.3129	45.049
4.3094	45.060
4.3058	45.063
4.3022	45.062
4.2986	45.060
4.2951	45.056
4.2915	45.047
4.2880	45.026
4.2844	44.990
4.2809	44.936
4.2774	44.872
4.2738	44.819
4.2703	44.799
4.2668	44.833
4.2633	44.929
4.2598	45.075
4.2563	45.248
4.2528	45.424
4.2493	45.579
4.2458	45.706
4.2424	45.807
4.2389	45.886
4.2354	45.951
4.2320	46.007
4.2285	46.057
4.2251	46.104
4.2216	46.148
4.2182	46.189
4.2148	46.226
4.2113	46.257
4.2079	46.283
4.2045	46.305
4.2011	46.330
4.1977	46.362
4.1943	46.404
4.1909	46.456
4.1875	46.516
4.1841	46.578
4.1808	46.638
4.1774	46.695
4.1740	46.749
4.1707	46.801
4.1673	46.854
4.1640	46.910
4.1606	46.968
4.1573	47.026
4.1540	47.086
4.1506	47.144
4.1473	47.201
4.1440	47.254
4.1407	47.305
4.1374	47.354
4.1341	47.403
4.1308	47.453
4.1275	47.505
4.1242	47.560
4.1209	47.615
4.1177	47.668
4.1144	47.720
4.1111	47.770
4.1079	47.821
4.1046	47.873
4.1014	47.926
4.0981	47.979
4.0949	48.027
4.0917	48.072
4.0884	48.113
4.0852	48.152
4.0820	48.190
4.0788	48.230
4.0756	48.273
4.0724	48.314
4.0692	48.350
4.0660	48.382
4.0628	48.408
4.0596	48.430
4.0565	48.449
4.0533	48.467
4.0501	48.488
4.0470	48.507
4.0438	48.524
4.0406	48.540
4.0375	48.554
4.0344	48.566
4.0312	48.575
4.0281	48.582
4.0250	48.591
4.0218	48.603
4.0187	48.616
4.0156	48.630
4.0125	48.643
4.0094	48.652
4.0063	48.657
4.0032	48.660
4.0001	48.661
3.9970	48.663
3.9940	48.666
3.9909	48.673
3.9878	48.684
3.9847	48.700
3.9817	48.721
3.9786	48.744
3.9756	48.767
3.9725	48.785
3.9695	48.801
3.9665	48.815
3.9634	48.824
3.9604	48.832
3.9574	48.842
3.9544	48.853
3.9513	48.864
3.9483	48.874
3.9453	48.887
3.9423	48.900
3.9393	48.911
3.9363	48.918
3.9333	48.920
3.9304	48.916
3.9274	48.903
3.9244	48.887
3.9214	48.871
3.9185	48.857
3.9155	48.844
3.9126	48.831
3.9096	48.814
3.9067	48.790
3.9037	48.760
3.9008	48.724
3.8979	48.686
3.8949	48.647
3.8920	48.607
3.8891	48.568
3.8862	48.529
3.8833	48.493
3.8804	48.459
3.8775	48.425
3.8746	48.391
3.8717	48.355
3.8688	48.314
3.8659	48.269
3.8630	48.226
3.8601	48.186
3.8573	48.151
3.8544	48.122
3.8515	48.097
3.8487	48.072
3.8458	48.041
3.8430	48.003
3.8401	47.964
3.8373	47.924
3.8344	47.882
3.8316	47.839
3.8288	47.798
3.8259	47.759
3.8231	47.718
3.8203	47.677
3.8175	47.638
3.8147	47.598
3.8119	47.551
3.8091	47.499
3.8063	47.445
3.8035	47.388
3.8007	47.329
3.7979	47.268
3.7951	47.209
3.7924	47.150
3.7896	47.088
3.7868	47.023
3.7841	46.957
3.7813	46.888
3.7785	46.815
3.7758	46.739
3.7730	46.660
3.7703	46.579
3.7676	46.498
3.7648	46.420
3.7621	46.349
3.7594	46.279
3.7566	46.201
3.7539	46.109
3.7512	45.999
3.7485	45.877
3.7458	45.755
3.7431	45.649
3.7404	45.572
3.7377	45.517
3.7350	45.473
3.7323	45.430
3.7296	45.380
3.7269	45.320
3.7242	45.248
3.7216	45.165
3.7189	45.068
3.7162	44.952
3.7136	44.816
3.7109	44.668
3.7083	44.523
3.7056	44.391
3.7030	44.279
3.7003	44.188
3.6977	44.114
3.6950	44.053
3.6924	44.000
3.6898	43.956
3.6872	43.929
3.6845	43.921
3.6819	43.927
3.6793	43.937
3.6767	43.941
3.6741	43.931
3.6715	43.901
3.6689	43.854
3.6663	43.794
3.6637	43.730
3.6611	43.662
3.6585	43.592
3.6560	43.520
3.6534	43.446
3.6508	43.369
3.6482	43.290
3.6457	43.207
3.6431	43.121
3.6406	43.034
3.6380	42.947
3.6355	42.858
3.6329	42.769
3.6304	42.678
3.6278	42.583
3.6253	42.483
3.6227	42.377
3.6202	42.271
3.6177	42.171
3.6152	42.076
3.6127	41.985
3.6101	41.896
3.6076	41.801
3.6051	41.698
3.6026	41.586
3.6001	41.470
3.5976	41.357
3.5951	41.249
3.5926	41.144
3.5901	41.040
3.5876	40.936
3.5852	40.833
3.5827	40.727
3.5802	40.622
3.5777	40.520
3.5753	40.418
3.5728	40.314
3.5704	40.203
3.5679	40.087
3.5654	39.969
3.5630	39.845
3.5605	39.719
3.5581	39.592
3.5557	39.464
3.5532	39.335
3.5508	39.207
3.5484	39.080
3.5459	38.953
3.5435	38.826
3.5411	38.698
3.5387	38.568
3.5363	38.433
3.5338	38.297
3.5314	38.162
3.5290	38.023
3.5266	37.875
3.5242	37.721
3.5218	37.559
3.5195	37.386
3.5171	37.202
3.5147	37.014
3.5123	36.830
3.5099	36.651
3.5075	36.484
3.5052	36.342
3.5028	36.240
3.5004	36.184
3.4981	36.173
3.4957	36.201
3.4934	36.251
3.4910	36.298
3.4887	36.320
3.4863	36.312
3.4840	36.273
3.4816	36.212
3.4793	36.136
3.4770	36.054
3.4746	35.971
3.4723	35.882
3.4700	35.780
3.4677	35.663
3.4653	35.529
3.4630	35.378
3.4607	35.212
3.4584	35.035
3.4561	34.853
3.4538	34.667
3.4515	34.481
3.4492	34.300
3.4469	34.130
3.4446	33.974
3.4423	33.835
3.4400	33.717
3.4378	33.619
3.4355	33.537
3.4332	33.462
3.4309	33.385
3.4287	33.297
3.4264	33.186
3.4241	33.052
3.4219	32.907
3.4196	32.757
3.4174	32.614
3.4151	32.489
3.4129	32.379
3.4106	32.276
3.4084	32.174
3.4061	32.068
3.4039	31.955
3.4017	31.834
3.3994	31.711
3.3972	31.587
3.3950	31.458
3.3928	31.325
3.3906	31.189
3.3883	31.053
3.3861	30.917
3.3839	30.786
3.3817	30.662
3.3795	30.539
3.3773	30.414
3.3751	30.284
3.3729	30.150
3.3707	30.016
3.3685	29.888
3.3663	29.772
3.3641	29.670
3.3620	29.580
3.3598	29.499
3.3576	29.422
3.3554	29.346
3.3533	29.267
3.3511	29.187
3.3489	29.105
3.3468	29.016
3.3446	28.923
3.3425	28.828
3.3403	28.730
3.3382	28.629
3.3360	28.526
3.3339	28.420
3.3317	28.314
3.3296	28.205
3.3274	28.094
3.3253	27.980
3.3232	27.864
3.3210	27.746
3.3189	27.628
3.3168	27.511
3.3147	27.396
3.3126	27.280
3.3104	27.162
3.3083	27.038
3.3062	26.906
3.3041	26.770
3.3020	26.633
3.2999	26.499
3.2978	26.368
3.2957	26.243
3.2936	26.125
3.2915	26.008
3.2894	25.885
3.2874	25.758
3.2853	25.626
3.2832	25.493
3.2811	25.364
3.2790	25.245
3.2770	25.136
3.2749	25.029
3.2728	24.918
3.2708	24.798
3.2687	24.671
3.2666	24.542
3.2646	24.417
3.2625	24.302
3.2605	24.196
3.2584	24.093
3.2564	23.988
3.2543	23.880
3.2523	23.765
3.2503	23.646
3.2482	23.528
3.2462	23.412
3.2442	23.302
3.2421	23.198
3.2401	23.100
3.2381	23.003
3.2361	22.896
3.2340	22.777
3.2320	22.648
3.2300	22.511
3.2280	22.372
3.2260	22.237
3.2240	22.109
3.2220	21.986
3.2200	21.863
3.2180	21.742
3.2160	21.625
3.2140	21.509
3.2120	21.387
3.2100	21.259
3.2080	21.122
3.2060	20.980
3.2040	20.837
3.2021	20.699
3.2001	20.572
3.1981	20.451
3.1961	20.333
3.1942	20.217
3.1922	20.103
3.1902	19.992
3.1883	19.883
3.1863	19.773
3.1844	19.661
3.1824	19.543
3.1805	19.422
3.1785	19.300
3.1766	19.184
3.1746	19.073
3.1727	18.963
3.1707	18.853
3.1688	18.742
3.1669	18.628
3.1649	18.511
3.1630	18.397
3.1611	18.286
3.1591	18.178
3.1572	18.072
3.1553	17.969
3.1534	17.869
3.1515	17.762
3.1495	17.647
3.1476	17.528
3.1457	17.407
3.1438	17.289
3.1419	17.178
3.1400	17.078
3.1381	16.987
3.1362	16.893
3.1343	16.794
3.1324	16.691
3.1305	16.587
3.1286	16.480
3.1268	16.373
3.1249	16.272
3.1230	16.177
3.1211	16.082
3.1192	15.988
3.1174	15.895
3.1155	15.802
3.1136	15.710
3.1117	15.623
3.1099	15.543
3.1080	15.471
3.1061	15.398
3.1043	15.320
3.1024	15.236
3.1006	15.149
3.0987	15.061
3.0969	14.978
3.0950	14.906
3.0932	14.845
3.0913	14.789
3.0895	14.736
3.0876	14.682
3.0858	14.625
3.0840	14.563
3.0821	14.497
3.0803	14.433
3.0785	14.376
3.0766	14.324
3.0748	14.279
3.0730	14.243
3.0712	14.215
3.0694	14.188
3.0675	14.157
3.0657	14.117
3.0639	14.066
3.0621	14.007
3.0603	13.944
3.0585	13.890
3.0567	13.852
3.0549	13.826
3.0531	13.803
3.0513	13.780
3.0495	13.754
3.0477	13.718
3.0459	13.673
3.0441	13.627
3.0423	13.582
3.0406	13.537
3.0388	13.491
3.0370	13.451
3.0352	13.417
3.0334	13.379
3.0317	13.333
3.0299	13.284
3.0281	13.235
3.0264	13.185
3.0246	13.138
3.0228	13.096
3.0211	13.054
3.0193	13.008
3.0176	12.959
3.0158	12.912
3.0140	12.865
3.0123	12.819
3.0105	12.773
3.0088	12.727
3.0070	12.681
3.0053	12.637
3.0036	12.598
3.0018	12.558
3.0001	12.514
2.9984	12.466
2.9966	12.413
2.9949	12.358
2.9932	12.300
2.9914	12.244
2.9897	12.189
2.9880	12.135
2.9863	12.087
2.9845	12.047
2.9828	12.014
2.9811	11.981
2.9794	11.942
2.9777	11.896
2.9760	11.842
2.9743	11.780
2.9726	11.719
2.9709	11.664
2.9692	11.611
2.9675	11.556
2.9658	11.505
2.9641	11.462
2.9624	11.424
2.9607	11.390
2.9590	11.365
2.9573	11.350
2.9556	11.335
2.9539	11.315
2.9523	11.296
2.9506	11.283
2.9489	11.272
2.9472	11.261
2.9455	11.253
2.9439	11.249
2.9422	11.236
2.9405	11.208
2.9389	11.171
2.9372	11.137
2.9355	11.111
2.9339	11.097
2.9322	11.093
2.9306	11.095
2.9289	11.092
2.9272	11.074
2.9256	11.048
2.9239	11.022
2.9223	11.004
2.9207	10.995
2.9190	10.993
2.9174	10.990
2.9157	10.980
2.9141	10.962
2.9124	10.944
2.9108	10.929
2.9092	10.920
2.9075	10.919
2.9059	10.921
2.9043	10.919
2.9027	10.909
2.9010	10.890
2.8994	10.868
2.8978	10.846
2.8962	10.825
2.8946	10.809
2.8929	10.794
2.8913	10.779
2.8897	10.765
2.8881	10.751
2.8865	10.742
2.8849	10.739
2.8833	10.741
2.8817	10.741
2.8801	10.731
2.8785	10.717
2.8769	10.706
2.8753	10.695
2.8737	10.685
2.8721	10.679
2.8705	10.672
2.8689	10.656
2.8673	10.630
2.8658	10.608
2.8642	10.596
2.8626	10.589
2.8610	10.581
2.8594	10.570
2.8579	10.556
2.8563	10.539
2.8547	10.516
2.8531	10.493
2.8516	10.477
2.8500	10.463
2.8484	10.449
2.8469	10.433
2.8453	10.421
2.8437	10.408
2.8422	10.383
2.8406	10.348
2.8391	10.312
2.8375	10.280
2.8360	10.249
2.8344	10.222
2.8329	10.202
2.8313	10.179
2.8298	10.141
2.8282	10.085
2.8267	10.015
2.8252	9.9356
2.8236	9.8499
2.8221	9.7668
2.8205	9.6926
2.8190	9.6275
2.8175	9.5645
2.8159	9.4951
2.8144	9.4137
2.8129	9.3194
2.8114	9.2117
2.8098	9.0930
2.8083	8.9682
2.8068	8.8420
2.8053	8.7136
2.8038	8.5815
2.8022	8.4479
2.8007	8.3153
2.7992	8.1825
2.7977	8.0475
2.7962	7.9099
2.7947	7.7652
2.7932	7.6068
2.7917	7.4351
2.7902	7.2520
2.7887	7.0555
2.7872	6.8452
2.7857	6.6202
2.7842	6.3846
2.7827	6.1430
2.7812	5.9062
2.7797	5.6893
2.7782	5.4982
2.7767	5.3269
2.7752	5.1609
2.7738	4.9791
2.7723	4.7586
2.7708	4.4749
2.7693	4.1076
2.7678	3.6564
2.7664	3.1489
2.7649	2.6407
2.7634	2.2045
2.7619	1.9135
2.7605	1.8124
2.7590	1.8974
2.7575	2.1195
2.7561	2.4075
2.7546	2.6995
2.7531	2.9517
2.7517	3.1376
2.7502	3.2482
2.7488	3.2799
2.7473	3.2323
2.7458	3.1094
2.7444	2.9228
2.7429	2.7021
2.7415	2.4856
2.7400	2.3090
2.7386	2.1998
2.7371	2.1692
2.7357	2.2147
2.7343	2.3170
2.7328	2.4378
2.7314	2.5434
2.7299	2.6152
2.7285	2.6500
2.7271	2.6658
2.7256	2.6928
2.7242	2.7596
2.7228	2.8754
2.7213	3.0168
2.7199	3.1511
2.7185	3.2432
2.7171	3.2574
2.7156	3.1859
2.7142	3.0431
2.7128	2.8553
2.7114	2.6512
2.7100	2.4551
2.7085	2.2938
2.7071	2.1877
2.7057	2.1524
2.7043	2.2107
2.7029	2.3755
2.7015	2.6469
2.7001	3.0185
2.6987	3.4862
2.6973	4.0569
2.6959	4.7484
2.6945	5.5926
2.6931	6.6218
2.6917	7.8372
2.6903	9.2100
2.6889	10.695
2.6875	12.230
2.6861	13.757
2.6847	15.221
2.6833	16.584
2.6819	17.836
2.6805	18.994
2.6791	20.074
2.6778	21.087
2.6764	22.048
2.6750	22.968
2.6736	23.821
2.6722	24.577
2.6709	25.255
2.6695	25.917
2.6681	26.586
2.6667	27.266
2.6654	27.986
2.6640	28.739
2.6626	29.479
2.6613	30.152
2.6599	30.748
2.6585	31.277
2.6572	31.732
2.6558	32.123
2.6545	32.489
2.6531	32.845
2.6517	33.195
2.6504	33.536
2.6490	33.860
2.6477	34.159
2.6463	34.433
2.6450	34.697
2.6436	34.966
2.6423	35.232
2.6409	35.502
2.6396	35.781
2.6382	36.030
2.6369	36.229
2.6356	36.382
2.6342	36.493
2.6329	36.578
2.6315	36.659
2.6302	36.796
2.6289	37.025
2.6275	37.287
2.6262	37.553
2.6249	37.794
2.6236	37.945
2.6222	37.995
2.6209	37.979
2.6196	37.983
2.6183	38.053
2.6169	38.168
2.6156	38.349
2.6143	38.570
2.6130	38.747
2.6117	38.841
2.6103	38.846
2.6090	38.797
2.6077	38.722
2.6064	38.661
2.6051	38.701
2.6038	38.879
2.6025	39.106
2.6012	39.275
2.5999	39.317
2.5986	39.216
2.5973	39.013
2.5960	38.803
2.5947	38.723
2.5934	38.864
2.5921	39.137
2.5908	39.411
2.5895	39.612
2.5882	39.710
2.5869	39.725
2.5856	39.717
2.5843	39.742
2.5830	39.857
2.5817	40.022
2.5805	40.163
2.5792	40.260
2.5779	40.308
2.5766	40.322
2.5753	40.328
2.5741	40.345
2.5728	40.421
2.5715	40.559
2.5702	40.718
2.5690	40.878
2.5677	41.008
2.5664	41.084
2.5651	41.114
2.5639	41.133
2.5626	41.201
2.5613	41.346
2.5601	41.556
2.5588	41.796
2.5575	42.013
2.5563	42.165
2.5550	42.242
2.5538	42.259
2.5525	42.255
2.5513	42.257
2.5500	42.269
2.5487	42.281
2.5475	42.289
2.5462	42.302
2.5450	42.325
2.5437	42.364
2.5425	42.429
2.5413	42.519
2.5400	42.616
2.5388	42.701
2.5375	42.766
2.5363	42.814
2.5350	42.851
2.5338	42.882
2.5326	42.922
2.5313	42.979
2.5301	43.049
2.5289	43.123
2.5276	43.191
2.5264	43.254
2.5252	43.311
2.5239	43.360
2.5227	43.403
2.5215	43.442
2.5202	43.478
2.5190	43.509
2.5178	43.536
2.5166	43.564
2.5154	43.598
2.5141	43.639
2.5129	43.681
2.5117	43.726
2.5105	43.776
2.5093	43.829
2.5081	43.882
2.5068	43.937
2.5056	43.994
2.5044	44.052
2.5032	44.105
2.5020	44.155
2.5008	44.201
2.4996	44.240
2.4984	44.271
2.4972	44.293
2.4960	44.304
2.4948	44.313
2.4936	44.319
2.4924	44.324
2.4912	44.334
2.4900	44.359
2.4888	44.404
2.4876	44.465
2.4864	44.541
2.4852	44.636
2.4840	44.743
2.4828	44.853
2.4816	44.965
2.4805	45.082
2.4793	45.197
2.4781	45.298
2.4769	45.382
2.4757	45.454
2.4745	45.516
2.4734	45.572
2.4722	45.632
2.4710	45.698
2.4698	45.769
2.4686	45.834
2.4675	45.888
2.4663	45.930
2.4651	45.956
2.4640	45.971
2.4628	45.982
2.4616	45.991
2.4604	46.006
2.4593	46.026
2.4581	46.051
2.4569	46.080
2.4558	46.110
2.4546	46.144
2.4535	46.179
2.4523	46.216
2.4511	46.253
2.4500	46.291
2.4488	46.330
2.4477	46.369
2.4465	46.412
2.4454	46.463
2.4442	46.523
2.4431	46.590
2.4419	46.663
2.4408	46.743
2.4396	46.826
2.4385	46.916
2.4373	47.023
2.4362	47.153
2.4350	47.305
2.4339	47.470
2.4327	47.640
2.4316	47.803
2.4305	47.944
2.4293	48.066
2.4282	48.176
2.4270	48.276
2.4259	48.368
2.4248	48.455
2.4236	48.542
2.4225	48.624
2.4214	48.702
2.4202	48.780
2.4191	48.858
2.4180	48.936
2.4169	49.014
2.4157	49.091
2.4146	49.164
2.4135	49.226
2.4124	49.276
2.4112	49.313
2.4101	49.335
2.4090	49.348
2.4079	49.360
2.4068	49.374
2.4056	49.388
2.4045	49.397
2.4034	49.404
2.4023	49.402
2.4012	49.383
2.4001	49.347
2.3990	49.292
2.3979	49.222
2.3967	49.140
2.3956	49.052
2.3945	48.968
2.3934	48.887
2.3923	48.807
2.3912	48.723
2.3901	48.634
2.3890	48.543
2.3879	48.458
2.3868	48.389
2.3857	48.344
2.3846	48.328
2.3835	48.337
2.3824	48.368
2.3813	48.419
2.3802	48.489
2.3791	48.578
2.3781	48.684
2.3770	48.808
2.3759	48.943
2.3748	49.080
2.3737	49.213
2.3726	49.341
2.3715	49.460
2.3704	49.565
2.3694	49.652
2.3683	49.718
2.3672	49.762
2.3661	49.778
2.3650	49.772
2.3640	49.755
2.3629	49.728
2.3618	49.693
2.3607	49.655
2.3597	49.623
2.3586	49.601
2.3575	49.592
2.3564	49.601
2.3554	49.630
2.3543	49.674
2.3532	49.731
2.3522	49.800
2.3511	49.879
2.3500	49.963
2.3490	50.049
2.3479	50.132
2.3468	50.211
2.3458	50.284
2.3447	50.354
2.3436	50.428
2.3426	50.507
2.3415	50.593
2.3405	50.678
2.3394	50.754
2.3384	50.816
2.3373	50.857
2.3363	50.877
2.3352	50.883
2.3342	50.881
2.3331	50.876
2.3321	50.865
2.3310	50.852
2.3300	50.838
2.3289	50.826
2.3279	50.819
2.3268	50.821
2.3258	50.839
2.3247	50.871
2.3237	50.915
2.3226	50.966
2.3216	51.019
2.3206	51.066
2.3195	51.105
2.3185	51.139
2.3175	51.172
2.3164	51.206
2.3154	51.252
2.3144	51.310
2.3133	51.374
2.3123	51.444
2.3113	51.522
2.3102	51.605
2.3092	51.692
2.3082	51.783
2.3071	51.882
2.3061	51.973
2.3051	52.048
2.3041	52.113
2.3030	52.171
2.3020	52.222
2.3010	52.275
2.3000	52.338
2.2990	52.406
2.2979	52.470
2.2969	52.526
2.2959	52.584
2.2949	52.640
2.2939	52.693
2.2929	52.746
2.2918	52.796
2.2908	52.837
2.2898	52.869
2.2888	52.900
2.2878	52.940
2.2868	52.987
2.2858	53.045
2.2848	53.110
2.2838	53.171
2.2828	53.221
2.2818	53.257
2.2808	53.280
2.2798	53.298
2.2787	53.317
2.2777	53.345
2.2767	53.383
2.2757	53.425
2.2747	53.466
2.2738	53.498
2.2728	53.513
2.2718	53.517
2.2708	53.518
2.2698	53.524
2.2688	53.543
2.2678	53.572
2.2668	53.606
2.2658	53.635
2.2648	53.646
2.2638	53.637
2.2628	53.611
2.2618	53.575
2.2609	53.540
2.2599	53.512
2.2589	53.496
2.2579	53.497
2.2569	53.508
2.2559	53.524
2.2550	53.540
2.2540	53.553
2.2530	53.560
2.2520	53.557
2.2510	53.547
2.2501	53.526
2.2491	53.495
2.2481	53.458
2.2471	53.421
2.2462	53.389
2.2452	53.362
2.2442	53.332
2.2433	53.297
2.2423	53.256
2.2413	53.214
2.2403	53.181
2.2394	53.168
2.2384	53.177
2.2374	53.207
2.2365	53.238
2.2355	53.256
2.2345	53.253
2.2336	53.228
2.2326	53.184
2.2317	53.128
2.2307	53.069
2.2297	53.009
2.2288	52.943
2.2278	52.863
2.2269	52.775
2.2259	52.680
2.2250	52.574
2.2240	52.454
2.2231	52.317
2.2221	52.156
2.2211	51.964
2.2202	51.738
2.2192	51.484
2.2183	51.201
2.2173	50.875
2.2164	50.477
2.2155	49.958
2.2145	49.266
2.2136	48.375
2.2126	47.308
2.2117	46.162
2.2107	45.090
2.2098	44.266
2.2088	43.832
2.2079	43.841
2.2070	44.252
2.2060	44.945
2.2051	45.765
2.2041	46.575
2.2032	47.288
2.2023	47.864
2.2013	48.307
2.2004	48.638
2.1995	48.880
2.1985	49.051
2.1976	49.161
2.1967	49.230
2.1957	49.278
2.1948	49.325
2.1939	49.380
2.1930	49.457
2.1920	49.554
2.1911	49.661
2.1902	49.768
2.1893	49.866
2.1883	49.954
2.1874	50.029
2.1865	50.092
2.1856	50.148
2.1846	50.194
2.1837	50.228
2.1828	50.253
2.1819	50.266
2.1810	50.276
2.1800	50.289
2.1791	50.313
2.1782	50.351
2.1773	50.393
2.1764	50.429
2.1755	50.458
2.1746	50.479
2.1736	50.496
2.1727	50.513
2.1718	50.531
2.1709	50.545
2.1700	50.546
2.1691	50.541
2.1682	50.543
2.1673	50.553
2.1664	50.572
2.1655	50.602
2.1646	50.634
2.1637	50.661
2.1628	50.685
2.1619	50.725
2.1610	50.790
2.1601	50.884
2.1592	51.009
2.1583	51.164
2.1574	51.333
2.1565	51.507
2.1556	51.679
2.1547	51.846
2.1538	52.013
2.1529	52.189
2.1520	52.381
2.1511	52.586
2.1502	52.799
2.1493	53.018
2.1484	53.231
2.1475	53.435
2.1466	53.635
2.1458	53.833
2.1449	54.025
2.1440	54.207
2.1431	54.377
2.1422	54.522
2.1413	54.634
2.1404	54.721
2.1396	54.799
2.1387	54.876
2.1378	54.959
2.1369	55.055
2.1360	55.164
2.1352	55.265
2.1343	55.340
2.1334	55.395
2.1325	55.442
2.1316	55.481
2.1308	55.514
2.1299	55.544
2.1290	55.575
2.1281	55.596
2.1273	55.599
2.1264	55.600
2.1255	55.607
2.1247	55.623
2.1238	55.643
2.1229	55.666
2.1220	55.690
2.1212	55.713
2.1203	55.728
2.1194	55.745
2.1186	55.762
2.1177	55.777
2.1168	55.785
2.1160	55.787
2.1151	55.780
2.1143	55.763
2.1134	55.744
2.1125	55.738
2.1117	55.750
2.1108	55.780
2.1100	55.828
2.1091	55.890
2.1082	55.951
2.1074	55.998
2.1065	56.035
2.1057	56.064
2.1048	56.087
2.1040	56.099
2.1031	56.101
2.1023	56.097
2.1014	56.089
2.1005	56.082
2.0997	56.083
2.0988	56.098
2.0980	56.126
2.0971	56.154
2.0963	56.176
2.0955	56.189
2.0946	56.194
2.0938	56.192
2.0929	56.190
2.0921	56.194
2.0912	56.200
2.0904	56.202
2.0895	56.205
2.0887	56.206
2.0879	56.203
2.0870	56.206
2.0862	56.221
2.0853	56.250
2.0845	56.284
2.0837	56.326
2.0828	56.363
2.0820	56.372
2.0812	56.394
2.0803	56.337
2.0795	56.264
2.0760	56.264
2.0720	56.700
2.0680	56.758
2.0640	56.421
2.0600	56.165
2.0560	56.835
2.0520	57.021
2.0480	56.727
2.0440	56.635
2.0400	56.017
2.0360	55.968
2.0320	55.968
2.0280	55.680
2.0240	55.120
2.0200	55.357
2.0160	55.540
2.0120	55.265
2.0080	54.568
2.0040	54.382
2.0000	54.426
1.9960	54.045
1.9920	54.100
1.9880	54.284
1.9840	54.237
1.9800	53.235
1.9760	52.875
1.9720	52.468
1.9680	52.242
1.9640	52.016
1.9600	51.341
1.9560	50.983
1.9520	51.108
1.9480	50.927
1.9440	50.520
1.9400	50.158
1.9360	49.748
1.9320	49.600
1.9280	49.585
1.9240	49.841
1.9200	49.652
1.9160	49.468
1.9120	49.337
1.9080	49.647
1.9040	50.022
1.9000	50.811
1.8960	51.547
1.8920	51.837
1.8880	52.242
1.8840	52.378
1.8800	52.511
1.8760	53.045
1.8720	53.357
1.8680	53.630
1.8640	54.593
1.8600	55.840
1.8560	56.500
1.8520	56.584
1.8480	56.320
1.8440	55.833
1.8400	55.676
1.8360	55.607
1.8320	55.782
1.8280	56.153
1.8240	56.024
1.8200	55.685
1.8160	55.403
1.8120	55.254
1.8080	55.170
1.8040	55.357
1.8000	55.347
1.7960	55.524
1.7920	55.036
1.7880	54.718
1.7840	54.855
1.7800	55.124
1.7760	55.082
1.7720	55.263
1.7680	55.263
1.7640	55.036
1.7600	54.901
1.7560	54.855
1.7520	54.503
1.7480	54.454
1.7440	54.412
1.7400	54.640
1.7360	54.549
1.7320	54.552
1.7280	54.690
1.7240	54.736
1.7200	54.740
1.7160	54.833
1.7120	54.918
1.7080	54.729
1.7040	54.821
1.7000	54.506
1.6960	54.372
1.6920	54.418
1.6880	54.506
1.6840	54.340
1.6800	54.506
1.6760	54.372
1.6720	54.327
1.6680	53.972
1.6640	53.897
1.6600	54.124
1.6560	53.897
1.6520	54.030
1.6480	53.719
1.6440	53.631
1.6400	53.679
1.6360	53.589
1.6320	53.721
1.6280	53.815
1.6240	53.856
1.6200	53.809
1.6160	53.807
1.6120	53.809
1.6080	53.721
1.6040	53.456
1.6000	53.455
1.5960	53.455
1.5920	53.416
1.5880	53.240
1.5840	53.018
1.5800	52.974
1.5760	52.974
1.5720	52.928
1.5680	52.928
1.5640	53.061
1.5600	52.685
1.5560	52.751
1.5520	52.640
1.5480	52.752
1.5440	52.640
1.5400	52.465
1.5360	52.422
1.5320	52.027
1.5280	51.896
1.5240	51.724
1.5200	51.939
1.5160	52.156
1.5120	51.982
1.5080	51.722
1.5040	51.160
1.5000	50.974
1.4960	50.835
1.4920	51.091
1.4880	51.656
1.4840	50.973
1.4800	50.877
1.4760	50.789
1.4720	50.747
1.4680	50.662
1.4640	50.497
1.4600	50.574
1.4560	50.455
1.4520	50.283
1.4480	50.062
1.4440	49.808
1.4400	49.387
1.4360	49.300
1.4320	49.371
1.4280	49.370
1.4240	49.282
1.4200	48.890
1.4160	48.058
1.4120	46.843
1.4080	46.019
1.4040	45.947
1.4000	46.176
1.3960	46.821
1.3920	47.148
1.3880	47.448
1.3840	47.587
1.3800	47.824
1.3760	48.272
1.3720	49.282
1.3680	49.733
1.3640	49.884
1.3600	49.878
1.3560	49.880
1.3520	49.898
1.3480	50.302
1.3440	50.490
1.3400	49.996
1.3360	49.456
1.3320	48.786
1.3280	48.526
1.3240	48.551
1.3200	48.791
1.3160	48.872
1.3120	48.630
1.3080	48.510
1.3040	48.431
1.3000	48.264
1.2960	48.177
1.2920	48.121
1.2880	48.025
1.2840	47.850
1.2800	47.745
1.2760	47.854
1.2720	47.965
1.2680	48.085
1.2640	48.545
1.2600	48.498
1.2560	48.611
1.2520	48.612
1.2480	48.555
1.2440	48.555
1.2400	48.457
1.2360	48.448
1.2320	48.448
1.2280	48.229
1.2240	48.029
1.2200	47.979
1.2160	48.001
1.2120	48.113
1.2080	48.177
1.2040	48.299
1.2000	47.691
1.1960	47.099
1.1920	46.905
1.1880	46.828
1.1840	46.712
1.1800	46.636
1.1760	46.559
1.1720	46.396
1.1680	46.205
1.1640	45.955
1.1600	45.846
1.1560	45.519
1.1520	45.243
1.1480	45.391
1.1440	45.448
1.1400	45.748
1.1360	46.170
1.1320	45.810
1.1280	45.825
1.1240	45.492
1.1200	45.629
1.1160	45.653
1.1120	45.098
1.1080	44.972
1.1040	44.935
1.1000	44.972
1.0960	45.098
1.0920	45.247
1.0880	44.840
1.0840	44.715
1.0800	44.427
1.0760	44.803
1.0720	44.427
1.0680	44.484
1.0640	44.213
1.0600	43.849
1.0560	43.849
1.0520	43.750
1.0480	43.734
1.0440	43.336
1.0400	43.159
1.0360	43.141
1.0320	43.450
1.0280	43.308
1.0240	43.521
1.0200	43.478
1.0160	43.283
1.0120	43.344
1.0080	42.954
1.0040	42.638
1.0000	42.427
0.99600	42.512
0.99200	43.060
0.98800	42.724
0.98400	42.266
0.98000	41.850
0.97600	41.932
0.97200	41.878
0.96800	41.736
0.96400	41.614
0.96000	41.471
0.95600	41.539
0.95200	41.284
0.94800	41.007
0.94400	41.175
0.94000	41.019
0.93600	41.019
0.93200	40.754
0.92800	40.743
0.92400	40.588
0.92000	40.478
0.91600	40.423
0.91200	40.226
0.90800	40.073
0.90400	40.060
0.90000	40.093
0.89600	39.851
0.89200	39.708
0.88800	39.531
0.88400	39.543
0.88000	39.529
0.87600	39.408
0.87200	39.263
0.86800	39.248
0.86400	39.289
0.86000	39.044
0.85600	38.922
0.85200	38.751
0.84800	38.485
0.84400	38.565
0.84000	38.370
0.83600	38.425
0.83200	38.134
0.82800	38.044
0.82400	38.029
0.82000	37.992
0.81600	37.720
0.81200	37.809
0.80800	37.606
0.80400	37.303
0.80000	37.211
0.79900	37.211
0.79800	37.211
0.79700	37.092
0.79600	36.947
0.79500	36.826
0.79400	36.696
0.79300	36.570
0.79200	36.633
0.79100	36.633
0.79000	36.636
0.78900	36.729
0.78800	36.414
0.78700	36.700
0.78600	36.444
0.78500	36.347
0.78400	36.444
0.78300	36.574
0.78200	36.410
0.78100	36.244
0.78000	36.247
0.77900	36.377
0.77800	36.284
0.77700	36.121
0.77600	35.862
0.77500	35.978
0.77400	35.826
0.77300	35.831
0.77200	35.957
0.77100	35.767
0.77000	35.864
0.76900	35.957
0.76800	35.666
0.76700	35.764
0.76600	35.951
0.76500	35.764
0.76400	35.603
0.76300	35.474
0.76200	35.344
0.76100	35.497
0.76000	35.441
0.75900	35.410
0.75800	35.442
0.75700	35.475
0.75600	35.313
0.75500	35.281
0.75400	35.313
0.75300	35.346
0.75200	34.991
0.75100	34.959
0.75000	34.797
0.74900	34.701
0.74800	34.605
0.74700	34.952
0.74600	34.861
0.74500	34.984
0.74400	34.758
0.74300	34.694
0.74200	34.598
0.74100	34.855
0.74000	34.887
0.73900	34.598
0.73800	34.598
0.73700	34.533
0.73600	34.501
0.73500	34.404
0.73400	34.346
0.73300	34.468
0.73200	34.336
0.73100	34.272
0.73000	34.209
0.72900	34.304
0.72800	33.987
0.72700	34.015
0.72600	33.611
0.72500	34.015
0.72400	34.015
0.72300	33.827
0.72200	33.827
0.72100	33.887
0.72000	33.984
0.71900	33.887
0.71800	33.818
0.71700	33.690
0.71600	33.215
0.71500	33.495
0.71400	33.616
0.71300	33.683
0.71200	33.750
0.71100	33.407
0.71000	33.310
0.70900	33.188
0.70800	33.001
0.70700	33.046
0.70600	33.329
0.70500	33.356
0.70400	33.454
0.70300	33.201
0.70200	33.099
0.70100	33.163
0.70000	33.132
0.69900	33.439
0.69800	33.390
0.69700	33.396
0.69600	33.207
0.69500	33.212
0.69400	33.148
0.69300	32.759
0.69200	32.560
0.69100	32.853
0.69000	32.522
0.68900	32.678
0.68800	32.985
0.68700	32.753
0.68600	32.653
0.68500	32.647
0.68400	32.985
0.68300	32.948
0.68200	32.741
0.68100	32.477
0.68000	32.384
0.67900	32.192
0.67800	31.992
0.67700	32.199
0.67600	32.037
0.67500	32.045
0.67400	32.076
0.67300	31.945
0.67200	31.693
0.67100	32.076
0.67000	32.045
0.66900	32.053
0.66800	32.200
0.66700	32.059
0.66600	31.796
0.66500	31.644
0.66400	31.483
0.66300	31.503
0.66200	31.625
0.66100	31.595
0.66000	31.503
0.65900	31.695
0.65800	31.889
0.65700	31.779
0.65600	31.717
0.65500	31.293
0.65400	31.313
0.65300	31.181
0.65200	31.270
0.65100	31.301
0.65000	31.109
0.64900	31.091
0.64800	31.091
0.64700	31.080
0.64600	31.110
0.64500	30.878
0.64400	30.789
0.64300	30.789
0.64200	31.050
0.64100	30.908
0.64000	30.806
0.63900	30.705
0.63800	30.704
0.63700	30.747
0.63600	30.616
0.63500	30.486
0.63400	30.415
0.63300	30.515
0.63200	30.545
0.63100	30.486
0.63000	30.562
0.62900	30.562
0.62800	30.562
0.62700	30.170
0.62600	30.271
0.62500	30.271
0.62400	30.199
0.62300	30.317
0.62200	30.215
0.62100	30.084
0.62000	29.910
0.61900	29.910
0.61800	29.837
0.61700	29.881
0.61600	29.852
0.61500	29.693
0.61400	29.592
0.61300	29.636
0.61200	29.563
0.61100	29.361
0.61000	29.462
0.60900	29.563
0.60800	29.462
0.60700	29.390
0.60600	29.244
0.60500	29.170
0.60400	28.967
0.60300	28.920
0.60200	29.035
0.60100	29.148
0.60000	29.165
0.59900	28.830
0.59800	28.943
0.59700	28.897
0.59600	28.908
0.59500	28.993
0.59400	29.040
0.59300	28.965
0.59200	29.011
0.59100	28.908
0.59000	28.720
0.58900	28.833
0.58800	28.861
0.58700	28.805
0.58600	28.598
0.58500	28.411
0.58400	28.392
0.58300	28.476
0.58200	28.205
0.58100	28.448
0.58000	28.495
0.57900	28.448
0.57800	28.392
0.57700	28.392
0.57600	28.186
0.57500	28.186
0.57400	28.100
0.57300	28.292
0.57200	28.276
0.57100	28.128
0.57000	27.979
0.56900	27.952
0.56800	28.027
0.56700	27.824
0.56600	27.952
0.56500	27.851
0.56400	27.546
0.56300	27.418
0.56200	27.418
0.56100	27.370
0.56000	27.347
0.55900	26.499
0.55800	27.405
0.55700	27.331
0.55600	27.082
0.55500	26.983
0.55400	26.983
0.55300	26.814
0.55200	26.910
0.55100	26.867
0.55000	26.917
0.54900	27.172
0.54800	26.973
0.54700	26.598
0.54600	26.749
0.54500	26.549
0.54400	26.427
0.54300	26.648
0.54200	26.575
0.54100	26.825
0.54000	26.550
0.53900	26.303
0.53800	26.600
0.53700	26.403
0.53600	26.402
0.53500	26.402
0.53400	26.378
0.53300	26.278
0.53200	26.278
0.53100	26.203
0.53000	26.178
0.52900	26.104
0.52800	26.129
0.52700	26.055
0.52600	25.685
0.52500	25.682
0.52400	25.804
0.52300	25.562
0.52200	25.539
0.52100	25.586
0.52000	25.608
0.51900	25.728
0.51800	25.512
0.51700	25.390
0.51600	25.607
0.51500	25.144
0.51400	24.953
0.51300	25.144
0.51200	25.385
0.51100	25.046
0.51000	24.989
0.50900	25.134
0.50800	24.654
0.50700	24.752
0.50600	24.616
0.50500	24.752
0.50400	24.722
0.50300	24.681
0.50200	24.847
0.50100	24.456
0.50000	24.578
0.49900	24.326
0.49800	24.434
0.49700	24.623
0.49600	24.435
0.49500	24.403
0.49400	24.366
0.49300	24.094
0.49200	24.049
0.49100	24.040
0.49000	24.107
0.48900	23.997
0.48800	23.975
0.48700	23.931
0.48600	23.758
0.48500	23.856
0.48400	23.953
0.48300	23.844
0.48200	23.997
0.48100	23.811
0.48000	23.746
0.47900	23.585
0.47800	23.574
0.47700	23.475
0.47600	23.517
0.47500	23.200
0.47400	23.179
0.47300	23.215
0.47200	23.117
0.47100	23.159
0.47000	23.118
0.46900	22.960
0.46800	22.862
0.46700	23.001
0.46600	22.862
0.46500	22.898
0.46400	22.802
0.46300	23.081
0.46200	22.806
0.46100	22.924
0.46000	22.787
0.45900	22.752
0.45800	22.795
0.45700	22.670
0.45600	22.792
0.45500	22.545
0.45400	22.567
0.45300	22.427
0.45200	22.262
0.45100	22.055
0.45000	22.355
0.44900	22.336
0.44800	22.131
0.44700	22.256
0.44600	22.064
0.44500	21.967
0.44400	21.758
0.44300	21.923
0.44200	22.039
0.44100	21.780
0.44000	21.856
0.43900	21.739
0.43800	21.748
0.43700	21.844
0.43600	21.739
0.43500	21.425
0.43400	21.566
0.43300	21.707
0.43200	21.459
0.43100	21.462
0.43000	21.392
0.42900	21.398
0.42800	21.176
0.42700	21.339
0.42600	21.302
0.42500	20.723
0.42400	20.875
0.42300	21.071
0.42200	20.672
0.42100	20.424
0.42000	20.864
0.41900	20.737
0.41800	20.577
0.41700	20.785
0.41600	20.577
0.41500	20.785
0.41400	20.486
0.41300	20.188
0.41200	20.592
0.41100	20.253
0.41000	20.052
0.40900	20.017
0.40800	20.288
0.40700	20.025
0.40600	20.025
0.40500	19.933
0.40400	19.840
0.40300	19.845
0.40200	19.833
0.40100	19.710
0.40000	19.876
0.0000	
