Name: Shale (Phosphatic)
Type:  Rocks
Class:  Sedimentary
Subclass: Shale 
Particle Size:  0 - 75 Micrometers
Sample No.:  shale.2
Owner:  JHU
Wavelength Range:  All
Origin:  Sample No. 384,  The Hunt and Salisbury Collection at the U.S. 
Geological Survey, Denver, Co.
Description: Slightly porous sample of whitish to brown oolites of 
phosphatic material, ~0.5 - 1.5 mm in size, collophane (amorphous 
calcium carbonophosphate, yellowish brown and isotropic) in oolitic 
form, frequently zoned. Fine-grained angular to subangular quartz 
occurs throughout, often in ooid cores. Silica recrystallization in some 
spots, carbonaceous material in oolite cores and rims are present.
Measurement:  Directional (10 Degree) Hemispherical Reflectance
First Column:  X
Second Column:  Y  
X Units:  Wavelength (micrometers)
Y Units:  Reflectance (percent)
First X Value: 14.0112
Last X Value:  0.4
Number of X Values: 2844
Additional Information:  None

14.983	3.7320
14.940	3.9309
14.897	3.8400
14.854	3.8807
14.812	3.9631
14.770	4.0761
14.728	4.2714
14.686	4.5956
14.645	4.8119
14.603	4.8727
14.562	4.7868
14.521	4.6018
14.481	4.5516
14.441	4.6553
14.400	4.8166
14.361	5.0361
14.321	5.3111
14.281	5.6585
14.242	5.9805
14.203	6.2508
14.164	6.4942
14.126	6.6974
14.087	6.8212
14.049	6.8857
14.011	6.9598
13.973	7.0758
13.936	7.2184
13.899	7.3702
13.861	7.5580
13.824	7.7761
13.788	7.9665
13.751	8.1081
13.715	8.2267
13.679	8.3603
13.643	8.4951
13.607	8.6194
13.571	8.7378
13.536	8.8657
13.500	8.9867
13.465	9.0814
13.430	9.1823
13.396	9.3050
13.361	9.4288
13.327	9.5567
13.293	9.6690
13.259	9.7627
13.225	9.8634
13.191	9.9579
13.158	10.045
13.124	10.115
13.091	10.134
13.058	10.098
13.026	10.000
12.993	9.8406
12.960	9.6566
12.928	9.4696
12.896	9.2974
12.864	9.1804
12.832	9.1420
12.800	9.1937
12.769	9.3142
12.737	9.4421
12.706	9.5328
12.675	9.5598
12.644	9.4954
12.614	9.3677
12.583	9.2164
12.552	9.0821
12.522	9.0127
12.492	9.0404
12.462	9.1958
12.432	9.4738
12.402	9.8437
12.373	10.271
12.343	10.692
12.314	11.060
12.285	11.366
12.256	11.607
12.227	11.783
12.198	11.908
12.169	12.030
12.141	12.167
12.113	12.285
12.084	12.389
12.056	12.480
12.028	12.533
12.000	12.509
11.973	12.434
11.945	12.363
11.918	12.319
11.890	12.300
11.863	12.314
11.836	12.347
11.809	12.376
11.782	12.352
11.755	12.278
11.729	12.168
11.702	11.967
11.676	11.478
11.650	10.399
11.624	8.7795
11.598	7.0569
11.572	5.6251
11.546	4.7920
11.520	4.6977
11.495	5.2395
11.469	6.0769
11.444	6.7969
11.419	7.3456
11.394	7.9168
11.369	8.5715
11.344	9.2957
11.319	9.9974
11.294	10.587
11.270	11.015
11.245	11.280
11.221	11.417
11.197	11.478
11.173	11.500
11.149	11.499
11.125	11.479
11.101	11.460
11.077	11.437
11.054	11.418
11.030	11.407
11.007	11.404
10.983	11.405
10.960	11.413
10.937	11.436
10.914	11.473
10.891	11.508
10.868	11.538
10.846	11.564
10.823	11.576
10.800	11.567
10.778	11.540
10.755	11.504
10.733	11.457
10.711	11.391
10.689	11.306
10.667	11.198
10.645	11.047
10.623	10.823
10.602	10.527
10.580	10.192
10.558	9.8534
10.537	9.5224
10.516	9.1690
10.494	8.7425
10.473	8.1931
10.452	7.4453
10.431	6.4700
10.410	5.3530
10.389	4.3456
10.368	3.7230
10.348	3.6588
10.327	4.1703
10.306	5.1143
10.286	6.2077
10.266	7.1488
10.245	7.7470
10.225	8.0098
10.205	8.0354
10.185	7.9241
10.165	7.7389
10.145	7.4988
10.125	7.2165
10.106	6.9143
10.086	6.5977
10.066	6.2747
10.047	5.9628
10.027	5.6578
10.008	5.3452
9.9887	5.0326
9.9695	4.7375
9.9504	4.4671
9.9313	4.2196
9.9123	4.0079
9.8934	3.8428
9.8746	3.7206
9.8558	3.6221
9.8371	3.5511
9.8185	3.5106
9.7999	3.4935
9.7814	3.5125
9.7630	3.5719
9.7447	3.6512
9.7264	3.7488
9.7082	3.8502
9.6900	3.9539
9.6719	4.0529
9.6539	4.1457
9.6360	4.2177
9.6181	4.2482
9.6003	4.2357
9.5825	4.1895
9.5649	4.1230
9.5472	4.0595
9.5297	3.9979
9.5122	3.9477
9.4948	3.8883
9.4774	3.8305
9.4601	3.7909
9.4429	3.7566
9.4257	3.7301
9.4086	3.7168
9.3916	3.7090
9.3746	3.6931
9.3577	3.6647
9.3408	3.6304
9.3240	3.5878
9.3073	3.5506
9.2906	3.5084
9.2740	3.4390
9.2574	3.3142
9.2409	3.1305
9.2245	2.9268
9.2081	2.7357
9.1918	2.6263
9.1755	2.6488
9.1593	2.7608
9.1431	2.9109
9.1270	3.0483
9.1110	3.1563
9.0950	3.2323
9.0791	3.2839
9.0632	3.3379
9.0474	3.4078
9.0316	3.4814
9.0159	3.5672
9.0003	3.6536
8.9847	3.7403
8.9691	3.8416
8.9536	3.9517
8.9382	4.0538
8.9228	4.1419
8.9075	4.1841
8.8922	4.1616
8.8770	4.0436
8.8618	3.8367
8.8467	3.5657
8.8316	3.2458
8.8166	2.9083
8.8016	2.5870
8.7867	2.2865
8.7718	2.0286
8.7570	1.8152
8.7422	1.6452
8.7275	1.5137
8.7129	1.4005
8.6982	1.2961
8.6837	1.2078
8.6692	1.1239
8.6547	1.0496
8.6403	0.99770
8.6259	0.97590
8.6116	0.98140
8.5973	1.0013
8.5830	1.0185
8.5688	1.0316
8.5547	1.0292
8.5406	1.0058
8.5266	0.97400
8.5126	0.94540
8.4986	0.92030
8.4847	0.91270
8.4708	0.91360
8.4570	0.91200
8.4432	0.91930
8.4295	0.93070
8.4158	0.94020
8.4022	0.95150
8.3886	0.96550
8.3750	0.99630
8.3615	1.0365
8.3481	1.0704
8.3347	1.1166
8.3213	1.1744
8.3079	1.2201
8.2946	1.2520
8.2814	1.2809
8.2682	1.3101
8.2550	1.3413
8.2419	1.3690
8.2288	1.4027
8.2158	1.4514
8.2028	1.5076
8.1898	1.5822
8.1769	1.6804
8.1640	1.7844
8.1512	1.8986
8.1384	2.0177
8.1256	2.1323
8.1129	2.2580
8.1002	2.3956
8.0876	2.5349
8.0750	2.6720
8.0624	2.8025
8.0499	2.9282
8.0374	3.0514
8.0250	3.1714
8.0126	3.2936
8.0002	3.4170
7.9879	3.5357
7.9756	3.6645
7.9634	3.8011
7.9512	3.9382
7.9390	4.0872
7.9268	4.2461
7.9147	4.4050
7.9027	4.5627
7.8906	4.7212
7.8786	4.8820
7.8667	5.0354
7.8548	5.1903
7.8429	5.3525
7.8310	5.5178
7.8192	5.6909
7.8075	5.8659
7.7957	6.0419
7.7840	6.2155
7.7723	6.3855
7.7607	6.5572
7.7491	6.7180
7.7375	6.8705
7.7260	7.0273
7.7145	7.1871
7.7031	7.3422
7.6916	7.4846
7.6802	7.6167
7.6689	7.7370
7.6575	7.8419
7.6462	7.9390
7.6350	8.0349
7.6238	8.1282
7.6126	8.2050
7.6014	8.2637
7.5903	8.3253
7.5792	8.3916
7.5681	8.4598
7.5571	8.5358
7.5461	8.6101
7.5351	8.6712
7.5242	8.7186
7.5133	8.7553
7.5024	8.7809
7.4916	8.7960
7.4807	8.7987
7.4700	8.7861
7.4592	8.7541
7.4485	8.7063
7.4378	8.6405
7.4272	8.5550
7.4165	8.4477
7.4059	8.3222
7.3954	8.1874
7.3848	8.0456
7.3743	7.8954
7.3639	7.7245
7.3534	7.5272
7.3430	7.3126
7.3326	7.0813
7.3223	6.8286
7.3119	6.5664
7.3016	6.3050
7.2914	6.0400
7.2811	5.7508
7.2709	5.4472
7.2607	5.1465
7.2506	4.8512
7.2404	4.5485
7.2303	4.2454
7.2203	3.9515
7.2102	3.6751
7.2002	3.4104
7.1902	3.1676
7.1803	2.9514
7.1703	2.7577
7.1604	2.5737
7.1506	2.3989
7.1407	2.2310
7.1309	2.0788
7.1211	1.9473
7.1113	1.8415
7.1016	1.7472
7.0919	1.6639
7.0822	1.5881
7.0725	1.5114
7.0629	1.4323
7.0533	1.3515
7.0437	1.2689
7.0341	1.1914
7.0246	1.1121
7.0151	1.0328
7.0056	0.95910
6.9962	0.90080
6.9867	0.86530
6.9773	0.85660
6.9679	0.87830
6.9586	0.93070
6.9493	1.0050
6.9400	1.0924
6.9307	1.1656
6.9214	1.2042
6.9122	1.1898
6.9030	1.1258
6.8938	1.0306
6.8847	0.92520
6.8755	0.83830
6.8664	0.79900
6.8573	0.80330
6.8483	0.83120
6.8393	0.87360
6.8302	0.92380
6.8213	0.96410
6.8123	0.99750
6.8034	1.0351
6.7944	1.0780
6.7855	1.1223
6.7767	1.1632
6.7678	1.2134
6.7590	1.2731
6.7502	1.3245
6.7414	1.3811
6.7327	1.4574
6.7239	1.5379
6.7152	1.6153
6.7065	1.7006
6.6979	1.7901
6.6892	1.8813
6.6806	1.9734
6.6720	2.0750
6.6634	2.1825
6.6549	2.2992
6.6464	2.4274
6.6378	2.5725
6.6294	2.7317
6.6209	2.9102
6.6124	3.1125
6.6040	3.3273
6.5956	3.5373
6.5872	3.7666
6.5789	4.0195
6.5705	4.2894
6.5622	4.5734
6.5539	4.8694
6.5456	5.1668
6.5374	5.4683
6.5292	5.7662
6.5209	6.0632
6.5128	6.3774
6.5046	6.6981
6.4964	7.0112
6.4883	7.3313
6.4802	7.6608
6.4721	8.0027
6.4640	8.3423
6.4560	8.6684
6.4480	8.9855
6.4399	9.2462
6.4320	9.4563
6.4240	9.6668
6.4160	9.8778
6.4081	10.087
6.4002	10.285
6.3923	10.456
6.3844	10.591
6.3766	10.658
6.3687	10.664
6.3609	10.652
6.3531	10.641
6.3454	10.637
6.3376	10.637
6.3299	10.638
6.3221	10.645
6.3144	10.642
6.3068	10.613
6.2991	10.568
6.2914	10.518
6.2838	10.465
6.2762	10.413
6.2686	10.352
6.2611	10.285
6.2535	10.219
6.2460	10.168
6.2385	10.134
6.2310	10.113
6.2235	10.109
6.2160	10.119
6.2086	10.101
6.2011	10.074
6.1937	10.067
6.1863	10.083
6.1790	10.134
6.1716	10.212
6.1643	10.309
6.1570	10.412
6.1496	10.501
6.1424	10.581
6.1351	10.636
6.1278	10.668
6.1206	10.711
6.1134	10.767
6.1062	10.832
6.0990	10.893
6.0918	10.962
6.0847	11.050
6.0776	11.128
6.0704	11.186
6.0633	11.278
6.0563	11.430
6.0492	11.622
6.0421	11.831
6.0351	12.060
6.0281	12.328
6.0211	12.610
6.0141	12.860
6.0071	13.122
6.0002	13.416
5.9932	13.709
5.9863	13.987
5.9794	14.279
5.9725	14.599
5.9657	14.952
5.9588	15.272
5.9520	15.575
5.9451	15.910
5.9383	16.286
5.9315	16.715
5.9247	17.207
5.9180	17.713
5.9112	18.233
5.9045	18.699
5.8978	19.126
5.8911	19.615
5.8844	20.173
5.8777	20.803
5.8711	21.484
5.8644	22.171
5.8578	22.868
5.8512	23.521
5.8446	24.087
5.8380	24.615
5.8314	25.143
5.8249	25.695
5.8184	26.283
5.8118	26.892
5.8053	27.487
5.7988	28.047
5.7923	28.520
5.7859	28.862
5.7794	29.187
5.7730	29.556
5.7666	29.938
5.7602	30.328
5.7538	30.713
5.7474	31.086
5.7410	31.400
5.7347	31.567
5.7283	31.619
5.7220	31.594
5.7157	31.439
5.7094	31.110
5.7031	30.600
5.6969	29.949
5.6906	29.273
5.6844	28.730
5.6782	28.428
5.6719	28.462
5.6657	28.797
5.6596	29.270
5.6534	29.783
5.6472	30.248
5.6411	30.625
5.6349	30.905
5.6288	31.049
5.6227	31.009
5.6166	30.788
5.6106	30.485
5.6045	30.277
5.5984	30.264
5.5924	30.508
5.5864	31.021
5.5804	31.722
5.5744	32.467
5.5684	33.173
5.5624	33.844
5.5564	34.480
5.5505	35.068
5.5445	35.609
5.5386	36.115
5.5327	36.590
5.5268	37.032
5.5209	37.431
5.5151	37.802
5.5092	38.159
5.5033	38.504
5.4975	38.801
5.4917	39.063
5.4859	39.308
5.4801	39.518
5.4743	39.704
5.4685	39.888
5.4628	40.064
5.4570	40.225
5.4513	40.358
5.4455	40.464
5.4398	40.482
5.4341	40.410
5.4284	40.313
5.4228	40.194
5.4171	40.048
5.4114	39.880
5.4058	39.687
5.4002	39.450
5.3945	39.134
5.3889	38.783
5.3833	38.450
5.3778	38.139
5.3722	37.858
5.3666	37.610
5.3611	37.424
5.3555	37.311
5.3500	37.261
5.3445	37.268
5.3390	37.329
5.3335	37.415
5.3280	37.498
5.3225	37.580
5.3171	37.674
5.3116	37.768
5.3062	37.862
5.3008	37.971
5.2954	38.092
5.2900	38.226
5.2846	38.379
5.2792	38.563
5.2738	38.770
5.2684	38.982
5.2631	39.197
5.2578	39.423
5.2524	39.637
5.2471	39.842
5.2418	40.043
5.2365	40.229
5.2312	40.380
5.2260	40.484
5.2207	40.535
5.2154	40.516
5.2102	40.422
5.2050	40.252
5.1998	40.001
5.1945	39.698
5.1893	39.415
5.1842	39.238
5.1790	39.220
5.1738	39.353
5.1686	39.601
5.1635	39.868
5.1584	40.070
5.1532	40.183
5.1481	40.219
5.1430	40.193
5.1379	40.117
5.1328	40.003
5.1277	39.850
5.1227	39.648
5.1176	39.398
5.1126	39.092
5.1075	38.728
5.1025	38.298
5.0975	37.793
5.0925	37.221
5.0875	36.588
5.0825	35.905
5.0775	35.161
5.0726	34.334
5.0676	33.407
5.0627	32.360
5.0577	31.162
5.0528	29.785
5.0479	28.213
5.0430	26.443
5.0380	24.478
5.0332	22.382
5.0283	20.306
5.0234	18.447
5.0185	16.985
5.0137	16.034
5.0088	15.602
5.0040	15.581
4.9992	15.759
4.9944	15.939
4.9896	16.015
4.9848	15.989
4.9800	15.955
4.9752	16.046
4.9704	16.358
4.9657	16.922
4.9609	17.692
4.9562	18.567
4.9514	19.443
4.9467	20.245
4.9420	20.932
4.9373	21.497
4.9326	21.956
4.9279	22.344
4.9232	22.688
4.9186	23.009
4.9139	23.316
4.9092	23.605
4.9046	23.850
4.9000	24.022
4.8953	24.098
4.8907	24.048
4.8861	23.855
4.8815	23.553
4.8769	23.229
4.8723	23.008
4.8678	22.967
4.8632	23.097
4.8586	23.315
4.8541	23.492
4.8495	23.510
4.8450	23.326
4.8405	22.978
4.8360	22.555
4.8315	22.126
4.8270	21.699
4.8225	21.256
4.8180	20.793
4.8135	20.338
4.8090	19.955
4.8046	19.719
4.8001	19.677
4.7957	19.837
4.7913	20.155
4.7868	20.566
4.7824	21.032
4.7780	21.532
4.7736	22.056
4.7692	22.594
4.7648	23.129
4.7605	23.651
4.7561	24.148
4.7517	24.600
4.7474	25.008
4.7431	25.374
4.7387	25.683
4.7344	25.915
4.7301	26.066
4.7258	26.153
4.7215	26.195
4.7172	26.193
4.7129	26.158
4.7086	26.111
4.7043	26.065
4.7000	26.023
4.6958	26.003
4.6915	26.012
4.6873	26.043
4.6831	26.083
4.6788	26.111
4.6746	26.117
4.6704	26.085
4.6662	26.006
4.6620	25.909
4.6578	25.823
4.6536	25.774
4.6495	25.788
4.6453	25.867
4.6411	25.993
4.6370	26.135
4.6328	26.291
4.6287	26.480
4.6246	26.744
4.6205	27.106
4.6163	27.582
4.6122	28.166
4.6081	28.827
4.6040	29.516
4.6000	30.185
4.5959	30.794
4.5918	31.333
4.5877	31.780
4.5837	32.130
4.5796	32.408
4.5756	32.644
4.5716	32.864
4.5675	33.098
4.5635	33.369
4.5595	33.694
4.5555	34.067
4.5515	34.474
4.5475	34.899
4.5435	35.322
4.5395	35.738
4.5356	36.174
4.5316	36.645
4.5276	37.158
4.5237	37.704
4.5197	38.258
4.5158	38.786
4.5119	39.252
4.5080	39.643
4.5040	39.979
4.5001	40.270
4.4962	40.528
4.4923	40.756
4.4884	40.954
4.4846	41.129
4.4807	41.288
4.4768	41.437
4.4730	41.581
4.4691	41.717
4.4652	41.849
4.4614	41.979
4.4576	42.093
4.4537	42.190
4.4499	42.283
4.4461	42.369
4.4423	42.444
4.4385	42.510
4.4347	42.571
4.4309	42.629
4.4271	42.679
4.4233	42.723
4.4196	42.758
4.4158	42.776
4.4120	42.768
4.4083	42.732
4.4045	42.662
4.4008	42.565
4.3971	42.479
4.3934	42.426
4.3896	42.417
4.3859	42.453
4.3822	42.516
4.3785	42.577
4.3748	42.608
4.3711	42.606
4.3674	42.573
4.3638	42.514
4.3601	42.433
4.3564	42.333
4.3528	42.213
4.3491	42.069
4.3455	41.909
4.3418	41.736
4.3382	41.538
4.3346	41.314
4.3310	41.057
4.3273	40.751
4.3237	40.381
4.3201	39.934
4.3165	39.401
4.3129	38.764
4.3094	38.017
4.3058	37.159
4.3022	36.172
4.2986	35.014
4.2951	33.662
4.2915	32.134
4.2880	30.476
4.2844	28.757
4.2809	27.093
4.2774	25.634
4.2738	24.520
4.2703	23.850
4.2668	23.680
4.2633	24.007
4.2598	24.768
4.2563	25.860
4.2528	27.183
4.2493	28.659
4.2458	30.220
4.2424	31.816
4.2389	33.396
4.2354	34.906
4.2320	36.305
4.2285	37.566
4.2251	38.678
4.2216	39.643
4.2182	40.466
4.2148	41.166
4.2113	41.759
4.2079	42.259
4.2045	42.686
4.2011	43.048
4.1977	43.355
4.1943	43.624
4.1909	43.860
4.1875	44.065
4.1841	44.238
4.1808	44.383
4.1774	44.504
4.1740	44.601
4.1707	44.685
4.1673	44.763
4.1640	44.828
4.1606	44.875
4.1573	44.910
4.1540	44.939
4.1506	44.955
4.1473	44.955
4.1440	44.945
4.1407	44.927
4.1374	44.887
4.1341	44.829
4.1308	44.774
4.1275	44.727
4.1242	44.679
4.1209	44.618
4.1177	44.544
4.1144	44.456
4.1111	44.349
4.1079	44.227
4.1046	44.097
4.1014	43.960
4.0981	43.813
4.0949	43.651
4.0917	43.464
4.0884	43.258
4.0852	43.045
4.0820	42.822
4.0788	42.592
4.0756	42.354
4.0724	42.108
4.0692	41.857
4.0660	41.592
4.0628	41.324
4.0596	41.051
4.0565	40.769
4.0533	40.479
4.0501	40.179
4.0470	39.864
4.0438	39.531
4.0406	39.178
4.0375	38.810
4.0344	38.405
4.0312	37.954
4.0281	37.469
4.0250	36.983
4.0218	36.546
4.0187	36.219
4.0156	36.052
4.0125	36.062
4.0094	36.219
4.0063	36.471
4.0032	36.762
4.0001	37.041
3.9970	37.275
3.9940	37.423
3.9909	37.445
3.9878	37.302
3.9847	36.994
3.9817	36.585
3.9786	36.193
3.9756	35.931
3.9725	35.879
3.9695	36.049
3.9665	36.401
3.9634	36.837
3.9604	37.264
3.9574	37.634
3.9544	37.945
3.9513	38.193
3.9483	38.380
3.9453	38.520
3.9423	38.636
3.9393	38.736
3.9363	38.827
3.9333	38.925
3.9304	39.045
3.9274	39.181
3.9244	39.322
3.9214	39.466
3.9185	39.606
3.9155	39.738
3.9126	39.847
3.9096	39.936
3.9067	40.012
3.9037	40.078
3.9008	40.139
3.8979	40.199
3.8949	40.258
3.8920	40.323
3.8891	40.381
3.8862	40.428
3.8833	40.472
3.8804	40.516
3.8775	40.558
3.8746	40.594
3.8717	40.630
3.8688	40.667
3.8659	40.696
3.8630	40.712
3.8601	40.726
3.8573	40.744
3.8544	40.761
3.8515	40.769
3.8487	40.770
3.8458	40.763
3.8430	40.748
3.8401	40.729
3.8373	40.711
3.8344	40.698
3.8316	40.687
3.8288	40.668
3.8259	40.647
3.8231	40.623
3.8203	40.589
3.8175	40.552
3.8147	40.517
3.8119	40.484
3.8091	40.447
3.8063	40.407
3.8035	40.364
3.8007	40.314
3.7979	40.256
3.7951	40.200
3.7924	40.152
3.7896	40.105
3.7868	40.057
3.7841	40.007
3.7813	39.950
3.7785	39.888
3.7758	39.826
3.7730	39.772
3.7703	39.723
3.7676	39.673
3.7648	39.623
3.7621	39.576
3.7594	39.529
3.7566	39.481
3.7539	39.425
3.7512	39.367
3.7485	39.311
3.7458	39.248
3.7431	39.181
3.7404	39.121
3.7377	39.065
3.7350	39.008
3.7323	38.950
3.7296	38.896
3.7269	38.848
3.7242	38.797
3.7216	38.742
3.7189	38.685
3.7162	38.621
3.7136	38.550
3.7109	38.479
3.7083	38.407
3.7056	38.340
3.7030	38.285
3.7003	38.227
3.6977	38.158
3.6950	38.085
3.6924	38.011
3.6898	37.934
3.6872	37.851
3.6845	37.774
3.6819	37.705
3.6793	37.625
3.6767	37.534
3.6741	37.439
3.6715	37.340
3.6689	37.241
3.6663	37.139
3.6637	37.037
3.6611	36.935
3.6585	36.835
3.6560	36.741
3.6534	36.642
3.6508	36.527
3.6482	36.405
3.6457	36.282
3.6431	36.156
3.6406	36.039
3.6380	35.937
3.6355	35.848
3.6329	35.756
3.6304	35.651
3.6278	35.537
3.6253	35.415
3.6227	35.293
3.6202	35.174
3.6177	35.055
3.6152	34.937
3.6127	34.812
3.6101	34.694
3.6076	34.576
3.6051	34.457
3.6026	34.348
3.6001	34.233
3.5976	34.113
3.5951	33.985
3.5926	33.846
3.5901	33.713
3.5876	33.580
3.5852	33.448
3.5827	33.317
3.5802	33.181
3.5777	33.046
3.5753	32.908
3.5728	32.766
3.5704	32.627
3.5679	32.486
3.5654	32.339
3.5630	32.184
3.5605	32.024
3.5581	31.852
3.5557	31.657
3.5532	31.449
3.5508	31.242
3.5484	31.039
3.5459	30.829
3.5435	30.620
3.5411	30.416
3.5387	30.213
3.5363	29.995
3.5338	29.774
3.5314	29.572
3.5290	29.377
3.5266	29.184
3.5242	29.009
3.5218	28.854
3.5195	28.722
3.5171	28.607
3.5147	28.516
3.5123	28.447
3.5099	28.378
3.5075	28.307
3.5052	28.239
3.5028	28.173
3.5004	28.107
3.4981	28.044
3.4957	27.979
3.4934	27.892
3.4910	27.775
3.4887	27.631
3.4863	27.455
3.4840	27.247
3.4816	27.010
3.4793	26.755
3.4770	26.485
3.4746	26.213
3.4723	25.976
3.4700	25.792
3.4677	25.657
3.4653	25.565
3.4630	25.504
3.4607	25.451
3.4584	25.386
3.4561	25.310
3.4538	25.241
3.4515	25.191
3.4492	25.166
3.4469	25.174
3.4446	25.206
3.4423	25.251
3.4400	25.289
3.4378	25.315
3.4355	25.328
3.4332	25.315
3.4309	25.284
3.4287	25.245
3.4264	25.198
3.4241	25.137
3.4219	25.064
3.4196	24.995
3.4174	24.931
3.4151	24.862
3.4129	24.800
3.4106	24.745
3.4084	24.700
3.4061	24.662
3.4039	24.632
3.4017	24.616
3.3994	24.597
3.3972	24.563
3.3950	24.511
3.3928	24.437
3.3906	24.356
3.3883	24.272
3.3861	24.180
3.3839	24.082
3.3817	23.988
3.3795	23.901
3.3773	23.821
3.3751	23.746
3.3729	23.671
3.3707	23.609
3.3685	23.555
3.3663	23.510
3.3641	23.491
3.3620	23.487
3.3598	23.482
3.3576	23.472
3.3554	23.444
3.3533	23.411
3.3511	23.379
3.3489	23.340
3.3468	23.301
3.3446	23.258
3.3425	23.208
3.3403	23.157
3.3382	23.101
3.3360	23.039
3.3339	22.979
3.3317	22.916
3.3296	22.843
3.3274	22.760
3.3253	22.685
3.3232	22.622
3.3210	22.552
3.3189	22.468
3.3168	22.393
3.3147	22.315
3.3126	22.221
3.3104	22.122
3.3083	22.042
3.3062	21.981
3.3041	21.909
3.3020	21.820
3.2999	21.744
3.2978	21.670
3.2957	21.583
3.2936	21.496
3.2915	21.414
3.2894	21.344
3.2874	21.264
3.2853	21.169
3.2832	21.083
3.2811	21.000
3.2790	20.926
3.2770	20.866
3.2749	20.795
3.2728	20.722
3.2708	20.645
3.2687	20.566
3.2666	20.493
3.2646	20.419
3.2625	20.359
3.2605	20.304
3.2584	20.241
3.2564	20.181
3.2543	20.119
3.2523	20.057
3.2503	19.999
3.2482	19.928
3.2462	19.846
3.2442	19.756
3.2421	19.673
3.2401	19.609
3.2381	19.544
3.2361	19.476
3.2340	19.415
3.2320	19.348
3.2300	19.274
3.2280	19.202
3.2260	19.128
3.2240	19.053
3.2220	18.978
3.2200	18.916
3.2180	18.861
3.2160	18.801
3.2140	18.745
3.2120	18.688
3.2100	18.616
3.2080	18.537
3.2060	18.458
3.2040	18.376
3.2021	18.298
3.2001	18.222
3.1981	18.150
3.1961	18.087
3.1942	18.025
3.1922	17.965
3.1902	17.902
3.1883	17.833
3.1863	17.772
3.1844	17.712
3.1824	17.650
3.1805	17.595
3.1785	17.532
3.1766	17.469
3.1746	17.424
3.1727	17.381
3.1707	17.333
3.1688	17.271
3.1669	17.194
3.1649	17.118
3.1630	17.045
3.1611	16.980
3.1591	16.927
3.1572	16.880
3.1553	16.840
3.1534	16.799
3.1515	16.743
3.1495	16.689
3.1476	16.652
3.1457	16.608
3.1438	16.550
3.1419	16.492
3.1400	16.441
3.1381	16.394
3.1362	16.348
3.1343	16.301
3.1324	16.252
3.1305	16.196
3.1286	16.137
3.1268	16.089
3.1249	16.052
3.1230	16.018
3.1211	15.994
3.1192	15.960
3.1174	15.911
3.1155	15.867
3.1136	15.818
3.1117	15.769
3.1099	15.727
3.1080	15.673
3.1061	15.623
3.1043	15.588
3.1024	15.557
3.1006	15.536
3.0987	15.511
3.0969	15.493
3.0950	15.470
3.0932	15.437
3.0913	15.405
3.0895	15.368
3.0876	15.321
3.0858	15.275
3.0840	15.243
3.0821	15.237
3.0803	15.226
3.0785	15.217
3.0766	15.213
3.0748	15.189
3.0730	15.151
3.0712	15.114
3.0694	15.092
3.0675	15.084
3.0657	15.063
3.0639	15.038
3.0621	15.018
3.0603	14.999
3.0585	14.978
3.0567	14.953
3.0549	14.927
3.0531	14.899
3.0513	14.869
3.0495	14.843
3.0477	14.830
3.0459	14.839
3.0441	14.854
3.0423	14.864
3.0406	14.863
3.0388	14.850
3.0370	14.829
3.0352	14.795
3.0334	14.767
3.0317	14.754
3.0299	14.745
3.0281	14.743
3.0264	14.740
3.0246	14.715
3.0228	14.676
3.0211	14.646
3.0193	14.629
3.0176	14.621
3.0158	14.616
3.0140	14.614
3.0123	14.601
3.0105	14.568
3.0088	14.531
3.0070	14.515
3.0053	14.519
3.0036	14.526
3.0018	14.543
3.0001	14.557
2.9984	14.550
2.9966	14.521
2.9949	14.470
2.9932	14.422
2.9914	14.399
2.9897	14.388
2.9880	14.386
2.9863	14.398
2.9845	14.402
2.9828	14.388
2.9811	14.371
2.9794	14.369
2.9777	14.379
2.9760	14.389
2.9743	14.391
2.9726	14.401
2.9709	14.403
2.9692	14.387
2.9675	14.368
2.9658	14.352
2.9641	14.341
2.9624	14.335
2.9607	14.347
2.9590	14.384
2.9573	14.422
2.9556	14.433
2.9539	14.435
2.9523	14.447
2.9506	14.465
2.9489	14.480
2.9472	14.494
2.9455	14.509
2.9439	14.517
2.9422	14.505
2.9405	14.504
2.9389	14.517
2.9372	14.542
2.9355	14.588
2.9339	14.634
2.9322	14.669
2.9306	14.699
2.9289	14.716
2.9272	14.719
2.9256	14.722
2.9239	14.740
2.9223	14.783
2.9207	14.826
2.9190	14.860
2.9174	14.893
2.9157	14.909
2.9141	14.929
2.9124	14.976
2.9108	15.026
2.9092	15.072
2.9075	15.110
2.9059	15.152
2.9043	15.204
2.9027	15.246
2.9010	15.297
2.8994	15.345
2.8978	15.364
2.8962	15.376
2.8946	15.404
2.8929	15.453
2.8913	15.510
2.8897	15.576
2.8881	15.644
2.8865	15.705
2.8849	15.759
2.8833	15.807
2.8817	15.863
2.8801	15.915
2.8785	15.958
2.8769	16.000
2.8753	16.036
2.8737	16.086
2.8721	16.158
2.8705	16.233
2.8689	16.312
2.8673	16.391
2.8658	16.460
2.8642	16.515
2.8626	16.560
2.8610	16.621
2.8594	16.696
2.8579	16.771
2.8563	16.846
2.8547	16.920
2.8531	16.984
2.8516	17.032
2.8500	17.076
2.8484	17.128
2.8469	17.185
2.8453	17.247
2.8437	17.303
2.8422	17.351
2.8406	17.395
2.8391	17.429
2.8375	17.462
2.8360	17.495
2.8344	17.527
2.8329	17.563
2.8313	17.592
2.8298	17.625
2.8282	17.692
2.8267	17.782
2.8252	17.885
2.8236	18.006
2.8221	18.150
2.8205	18.317
2.8190	18.492
2.8175	18.654
2.8159	18.825
2.8144	19.000
2.8129	19.164
2.8114	19.322
2.8098	19.497
2.8083	19.670
2.8068	19.825
2.8053	19.975
2.8038	20.152
2.8022	20.348
2.8007	20.541
2.7992	20.733
2.7977	20.932
2.7962	21.126
2.7947	21.320
2.7932	21.523
2.7917	21.725
2.7902	21.931
2.7887	22.150
2.7872	22.364
2.7857	22.588
2.7842	22.843
2.7827	23.108
2.7812	23.362
2.7797	23.609
2.7782	23.870
2.7767	24.140
2.7752	24.388
2.7738	24.641
2.7723	24.913
2.7708	25.185
2.7693	25.456
2.7678	25.693
2.7664	25.879
2.7649	26.067
2.7634	26.305
2.7619	26.648
2.7605	27.068
2.7590	27.548
2.7575	28.101
2.7561	28.666
2.7546	29.216
2.7531	29.789
2.7517	30.399
2.7502	31.026
2.7488	31.622
2.7473	32.196
2.7458	32.736
2.7444	33.209
2.7429	33.638
2.7415	34.111
2.7400	34.645
2.7386	35.243
2.7371	35.952
2.7357	36.772
2.7343	37.624
2.7328	38.441
2.7314	39.227
2.7299	39.972
2.7285	40.616
2.7271	41.251
2.7256	41.919
2.7242	42.610
2.7228	43.405
2.7213	44.309
2.7199	45.282
2.7185	46.234
2.7171	47.102
2.7156	47.830
2.7142	48.322
2.7128	48.613
2.7114	48.846
2.7100	49.066
2.7085	49.329
2.7071	49.724
2.7057	50.268
2.7043	50.921
2.7029	51.713
2.7015	52.662
2.7001	53.703
2.6987	54.709
2.6973	55.627
2.6959	56.536
2.6945	57.428
2.6931	58.291
2.6917	59.137
2.6903	59.948
2.6889	60.669
2.6875	61.232
2.6861	61.694
2.6847	62.156
2.6833	62.556
2.6819	62.880
2.6805	63.123
2.6791	63.335
2.6778	63.593
2.6764	63.934
2.6750	64.197
2.6736	64.369
2.6722	64.561
2.6709	64.694
2.6695	64.714
2.6681	64.756
2.6667	65.013
2.6654	65.426
2.6640	65.760
2.6626	66.069
2.6613	66.472
2.6599	66.771
2.6585	66.939
2.6572	67.037
2.6558	67.151
2.6545	67.273
2.6531	67.411
2.6517	67.576
2.6504	67.745
2.6490	67.881
2.6477	68.028
2.6463	68.141
2.6450	68.226
2.6436	68.323
2.6423	68.455
2.6409	68.601
2.6396	68.721
2.6382	68.803
2.6369	68.905
2.6356	68.953
2.6342	68.868
2.6329	68.801
2.6315	68.793
2.6302	68.776
2.6289	68.846
2.6275	69.019
2.6262	69.301
2.6249	69.468
2.6236	69.439
2.6222	69.457
2.6209	69.426
2.6196	69.327
2.6183	69.350
2.6169	69.488
2.6156	69.709
2.6143	69.865
2.6130	69.961
2.6117	70.087
2.6103	70.091
2.6090	69.959
2.6077	69.838
2.6064	69.757
2.6051	69.749
2.6038	69.841
2.6025	70.049
2.6012	70.342
2.5999	70.484
2.5986	70.261
2.5973	69.926
2.5960	69.714
2.5947	69.662
2.5934	69.799
2.5921	70.096
2.5908	70.439
2.5895	70.689
2.5882	70.646
2.5869	70.485
2.5856	70.418
2.5843	70.421
2.5830	70.497
2.5817	70.603
2.5805	70.689
2.5792	70.814
2.5779	70.850
2.5766	70.780
2.5753	70.750
2.5741	70.714
2.5728	70.691
2.5715	70.722
2.5702	70.795
2.5690	70.876
2.5677	70.896
2.5664	70.855
2.5651	70.795
2.5639	70.693
2.5626	70.626
2.5613	70.661
2.5601	70.773
2.5588	70.898
2.5575	70.994
2.5563	71.026
2.5550	70.966
2.5538	70.879
2.5525	70.823
2.5513	70.765
2.5500	70.712
2.5487	70.682
2.5475	70.644
2.5462	70.586
2.5450	70.531
2.5437	70.497
2.5425	70.486
2.5413	70.479
2.5400	70.463
2.5388	70.455
2.5375	70.462
2.5363	70.463
2.5350	70.464
2.5338	70.466
2.5326	70.479
2.5313	70.502
2.5301	70.514
2.5289	70.539
2.5276	70.576
2.5264	70.603
2.5252	70.624
2.5239	70.647
2.5227	70.674
2.5215	70.701
2.5202	70.720
2.5190	70.739
2.5178	70.755
2.5166	70.761
2.5154	70.756
2.5141	70.758
2.5129	70.771
2.5117	70.793
2.5105	70.815
2.5093	70.842
2.5081	70.873
2.5068	70.894
2.5056	70.915
2.5044	70.939
2.5032	70.963
2.5020	70.988
2.5008	71.007
2.4996	71.013
2.4984	71.008
2.4972	71.015
2.4960	71.042
2.4948	71.069
2.4936	71.095
2.4924	71.120
2.4912	71.132
2.4900	71.119
2.4888	71.111
2.4876	71.128
2.4864	71.171
2.4852	71.221
2.4840	71.264
2.4828	71.313
2.4816	71.355
2.4805	71.382
2.4793	71.420
2.4781	71.452
2.4769	71.480
2.4757	71.514
2.4745	71.550
2.4734	71.593
2.4722	71.633
2.4710	71.683
2.4698	71.732
2.4686	71.756
2.4675	71.773
2.4663	71.813
2.4651	71.861
2.4640	71.903
2.4628	71.936
2.4616	71.980
2.4604	72.022
2.4593	72.060
2.4581	72.113
2.4569	72.170
2.4558	72.220
2.4546	72.265
2.4535	72.315
2.4523	72.378
2.4511	72.448
2.4500	72.511
2.4488	72.561
2.4477	72.611
2.4465	72.661
2.4454	72.701
2.4442	72.757
2.4431	72.831
2.4419	72.893
2.4408	72.930
2.4396	72.955
2.4385	73.001
2.4373	73.053
2.4362	73.103
2.4350	73.167
2.4339	73.235
2.4327	73.287
2.4316	73.330
2.4305	73.367
2.4293	73.394
2.4282	73.424
2.4270	73.476
2.4259	73.540
2.4248	73.604
2.4236	73.683
2.4225	73.782
2.4214	73.863
2.4202	73.930
2.4191	74.003
2.4180	74.084
2.4169	74.162
2.4157	74.245
2.4146	74.326
2.4135	74.409
2.4124	74.477
2.4112	74.527
2.4101	74.578
2.4090	74.636
2.4079	74.701
2.4068	74.777
2.4056	74.852
2.4045	74.931
2.4034	75.007
2.4023	75.077
2.4012	75.156
2.4001	75.231
2.3990	75.287
2.3979	75.334
2.3967	75.378
2.3956	75.415
2.3945	75.460
2.3934	75.524
2.3923	75.585
2.3912	75.633
2.3901	75.671
2.3890	75.705
2.3879	75.734
2.3868	75.757
2.3857	75.789
2.3846	75.825
2.3835	75.861
2.3824	75.912
2.3813	75.980
2.3802	76.043
2.3791	76.094
2.3781	76.146
2.3770	76.190
2.3759	76.219
2.3748	76.248
2.3737	76.285
2.3726	76.328
2.3715	76.355
2.3704	76.369
2.3694	76.420
2.3683	76.480
2.3672	76.519
2.3661	76.561
2.3650	76.591
2.3640	76.606
2.3629	76.615
2.3618	76.623
2.3607	76.662
2.3597	76.702
2.3586	76.731
2.3575	76.766
2.3564	76.791
2.3554	76.804
2.3543	76.831
2.3532	76.870
2.3522	76.917
2.3511	76.962
2.3500	77.018
2.3490	77.072
2.3479	77.117
2.3468	77.161
2.3458	77.208
2.3447	77.256
2.3436	77.304
2.3426	77.363
2.3415	77.438
2.3405	77.500
2.3394	77.540
2.3384	77.576
2.3373	77.605
2.3363	77.627
2.3352	77.656
2.3342	77.697
2.3331	77.749
2.3321	77.812
2.3310	77.873
2.3300	77.924
2.3289	77.980
2.3279	78.038
2.3268	78.083
2.3258	78.107
2.3247	78.121
2.3237	78.147
2.3226	78.175
2.3216	78.192
2.3206	78.223
2.3195	78.260
2.3185	78.289
2.3175	78.310
2.3164	78.307
2.3154	78.297
2.3144	78.305
2.3133	78.331
2.3123	78.369
2.3113	78.402
2.3102	78.427
2.3092	78.452
2.3082	78.446
2.3071	78.430
2.3061	78.443
2.3051	78.497
2.3041	78.565
2.3030	78.608
2.3020	78.612
2.3010	78.609
2.3000	78.597
2.2990	78.582
2.2979	78.589
2.2969	78.609
2.2959	78.647
2.2949	78.678
2.2939	78.686
2.2929	78.707
2.2918	78.738
2.2908	78.749
2.2898	78.752
2.2888	78.731
2.2878	78.709
2.2868	78.697
2.2858	78.699
2.2848	78.711
2.2838	78.721
2.2828	78.718
2.2818	78.692
2.2808	78.645
2.2798	78.590
2.2787	78.542
2.2777	78.508
2.2767	78.505
2.2757	78.526
2.2747	78.547
2.2738	78.558
2.2728	78.564
2.2718	78.563
2.2708	78.548
2.2698	78.532
2.2688	78.550
2.2678	78.583
2.2668	78.613
2.2658	78.643
2.2648	78.655
2.2638	78.661
2.2628	78.671
2.2618	78.664
2.2609	78.662
2.2599	78.681
2.2589	78.705
2.2579	78.723
2.2569	78.731
2.2559	78.742
2.2550	78.753
2.2540	78.756
2.2530	78.754
2.2520	78.758
2.2510	78.753
2.2501	78.756
2.2491	78.769
2.2481	78.767
2.2471	78.757
2.2462	78.760
2.2452	78.764
2.2442	78.768
2.2433	78.770
2.2423	78.797
2.2413	78.837
2.2403	78.852
2.2394	78.859
2.2384	78.876
2.2374	78.902
2.2365	78.925
2.2355	78.939
2.2345	78.955
2.2336	78.957
2.2326	78.952
2.2317	78.956
2.2307	78.955
2.2297	78.952
2.2288	78.952
2.2278	78.961
2.2269	78.978
2.2259	78.976
2.2250	78.983
2.2240	79.008
2.2231	79.005
2.2221	78.984
2.2211	78.966
2.2202	78.938
2.2192	78.915
2.2183	78.899
2.2173	78.891
2.2164	78.884
2.2155	78.874
2.2145	78.862
2.2136	78.855
2.2126	78.827
2.2117	78.802
2.2107	78.798
2.2098	78.791
2.2088	78.773
2.2079	78.759
2.2070	78.766
2.2060	78.803
2.2051	78.830
2.2041	78.844
2.2032	78.862
2.2023	78.887
2.2013	78.908
2.2004	78.932
2.1995	78.964
2.1985	78.993
2.1976	79.017
2.1967	79.052
2.1957	79.092
2.1948	79.123
2.1939	79.132
2.1930	79.146
2.1920	79.148
2.1911	79.140
2.1902	79.148
2.1893	79.162
2.1883	79.182
2.1874	79.211
2.1865	79.224
2.1856	79.227
2.1846	79.242
2.1837	79.275
2.1828	79.302
2.1819	79.299
2.1810	79.299
2.1800	79.326
2.1791	79.348
2.1782	79.334
2.1773	79.311
2.1764	79.278
2.1755	79.240
2.1746	79.207
2.1736	79.201
2.1727	79.248
2.1718	79.319
2.1709	79.362
2.1700	79.357
2.1691	79.313
2.1682	79.280
2.1673	79.259
2.1664	79.242
2.1655	79.256
2.1646	79.275
2.1637	79.280
2.1628	79.270
2.1619	79.271
2.1610	79.279
2.1601	79.277
2.1592	79.254
2.1583	79.226
2.1574	79.200
2.1565	79.169
2.1556	79.138
2.1547	79.115
2.1538	79.100
2.1529	79.084
2.1520	79.049
2.1511	79.041
2.1502	79.074
2.1493	79.107
2.1484	79.140
2.1475	79.174
2.1466	79.212
2.1458	79.223
2.1449	79.184
2.1440	79.161
2.1431	79.132
2.1422	79.098
2.1413	79.098
2.1404	79.091
2.1396	79.084
2.1387	79.082
2.1378	79.079
2.1369	79.057
2.1360	79.002
2.1352	78.965
2.1343	78.947
2.1334	78.937
2.1325	78.957
2.1316	79.002
2.1308	79.049
2.1299	79.034
2.1290	78.978
2.1281	78.916
2.1273	78.843
2.1264	78.782
2.1255	78.752
2.1247	78.745
2.1238	78.756
2.1229	78.770
2.1220	78.796
2.1212	78.819
2.1203	78.807
2.1194	78.765
2.1186	78.765
2.1177	78.771
2.1168	78.746
2.1160	78.723
2.1151	78.733
2.1143	78.745
2.1134	78.730
2.1125	78.694
2.1117	78.685
2.1108	78.695
2.1100	78.687
2.1091	78.672
2.1082	78.683
2.1074	78.698
2.1065	78.700
2.1057	78.680
2.1048	78.659
2.1040	78.663
2.1031	78.678
2.1023	78.679
2.1014	78.670
2.1005	78.653
2.0997	78.657
2.0988	78.649
2.0980	78.614
2.0971	78.567
2.0963	78.535
2.0955	78.541
2.0946	78.552
2.0938	78.565
2.0929	78.579
2.0921	78.553
2.0912	78.512
2.0904	78.465
2.0895	78.435
2.0887	78.480
2.0879	78.537
2.0870	78.576
2.0862	78.601
2.0853	78.607
2.0845	78.572
2.0837	78.493
2.0828	78.423
2.0820	78.294
2.0812	78.339
2.0803	78.436
2.0795	78.449
2.0760	78.449
2.0720	78.353
2.0680	78.668
2.0640	78.632
2.0600	78.118
2.0560	78.651
2.0520	78.744
2.0480	78.727
2.0440	77.894
2.0400	77.530
2.0360	77.458
2.0320	77.090
2.0280	76.803
2.0240	76.427
2.0200	76.090
2.0160	75.906
2.0120	75.539
2.0080	75.098
2.0040	74.595
2.0000	74.890
1.9960	74.196
1.9920	73.729
1.9880	73.775
1.9840	73.707
1.9800	72.759
1.9760	72.803
1.9720	72.465
1.9680	72.037
1.9640	71.923
1.9600	70.823
1.9560	70.154
1.9520	70.375
1.9480	70.012
1.9440	69.494
1.9400	68.951
1.9360	68.471
1.9320	69.153
1.9280	69.541
1.9240	70.341
1.9200	70.565
1.9160	70.473
1.9120	70.735
1.9080	72.086
1.9040	73.243
1.9000	74.603
1.8960	75.892
1.8920	76.293
1.8880	76.231
1.8840	76.543
1.8800	76.238
1.8760	76.376
1.8720	76.089
1.8680	76.682
1.8640	78.319
1.8600	80.063
1.8560	81.464
1.8520	81.588
1.8480	80.950
1.8440	79.983
1.8400	79.435
1.8360	79.642
1.8320	80.225
1.8280	80.427
1.8240	80.632
1.8200	80.158
1.8160	79.372
1.8120	78.789
1.8080	79.194
1.8040	79.567
1.8000	79.283
1.7960	79.194
1.7920	78.683
1.7880	77.981
1.7840	78.366
1.7800	78.418
1.7760	78.311
1.7720	78.363
1.7680	78.186
1.7640	77.977
1.7600	77.907
1.7560	78.102
1.7520	78.190
1.7480	77.894
1.7440	77.875
1.7400	77.870
1.7360	77.731
1.7320	77.605
1.7280	77.725
1.7240	77.883
1.7200	78.289
1.7160	78.786
1.7120	78.822
1.7080	78.400
1.7040	78.451
1.7000	77.977
1.6960	77.819
1.6920	77.888
1.6880	77.888
1.6840	77.899
1.6800	77.888
1.6760	77.907
1.6720	77.397
1.6680	77.171
1.6640	77.232
1.6600	77.577
1.6560	77.320
1.6520	77.300
1.6480	77.006
1.6440	76.918
1.6400	77.174
1.6360	77.212
1.6320	77.320
1.6280	77.735
1.6240	77.262
1.6200	76.615
1.6160	76.479
1.6120	76.615
1.6080	76.703
1.6040	76.703
1.6000	76.127
1.5960	75.687
1.5920	76.162
1.5880	76.476
1.5840	76.407
1.5800	76.427
1.5760	76.427
1.5720	75.781
1.5680	75.869
1.5640	76.026
1.5600	75.931
1.5560	75.599
1.5520	75.558
1.5480	75.693
1.5440	75.117
1.5400	74.762
1.5360	74.651
1.5320	74.805
1.5280	74.739
1.5240	74.387
1.5200	74.981
1.5160	75.050
1.5120	74.169
1.5080	73.556
1.5040	72.709
1.5000	72.700
1.4960	73.465
1.4920	73.949
1.4880	74.684
1.4840	73.496
1.4800	73.266
1.4760	73.178
1.4720	73.024
1.4680	72.806
1.4640	72.729
1.4600	72.542
1.4560	72.401
1.4520	72.097
1.4480	71.897
1.4440	71.380
1.4400	70.828
1.4360	70.740
1.4320	70.855
1.4280	71.030
1.4240	71.118
1.4200	71.055
1.4160	70.680
1.4120	70.030
1.4080	69.532
1.4040	69.754
1.4000	70.087
1.3960	70.758
1.3920	71.860
1.3880	72.415
1.3840	71.991
1.3800	71.795
1.3760	71.884
1.3720	73.386
1.3680	74.017
1.3640	72.503
1.3600	70.779
1.3560	70.729
1.3520	72.568
1.3480	73.402
1.3440	73.405
1.3400	72.450
1.3360	71.224
1.3320	70.724
1.3280	70.724
1.3240	71.210
1.3200	71.413
1.3160	71.452
1.3120	71.210
1.3080	71.022
1.3040	70.809
1.3000	70.511
1.2960	70.424
1.2920	70.435
1.2880	70.122
1.2840	69.597
1.2800	69.405
1.2760	69.273
1.2720	69.140
1.2680	69.149
1.2640	69.228
1.2600	69.157
1.2560	69.156
1.2520	69.021
1.2480	68.848
1.2440	68.488
1.2400	68.793
1.2360	69.190
1.2320	69.144
1.2280	68.262
1.2240	67.729
1.2200	67.969
1.2160	68.055
1.2120	68.317
1.2080	68.510
1.2040	68.334
1.2000	67.360
1.1960	66.368
1.1920	66.072
1.1880	65.778
1.1840	65.515
1.1800	65.399
1.1760	65.195
1.1720	65.080
1.1680	64.782
1.1640	64.319
1.1600	64.035
1.1560	63.620
1.1520	63.558
1.1480	63.608
1.1440	63.782
1.1400	63.883
1.1360	63.945
1.1320	63.578
1.1280	63.919
1.1240	63.546
1.1200	63.532
1.1160	63.705
1.1120	63.222
1.1080	62.898
1.1040	62.486
1.1000	62.543
1.0960	62.688
1.0920	62.556
1.0880	61.985
1.0840	61.929
1.0800	61.674
1.0760	61.663
1.0720	61.231
1.0680	61.273
1.0640	60.910
1.0600	60.403
1.0560	60.226
1.0520	60.039
1.0480	59.881
1.0440	59.677
1.0400	59.501
1.0360	59.253
1.0320	59.012
1.0280	58.889
1.0240	58.942
1.0200	58.650
1.0160	58.400
1.0120	58.584
1.0080	57.916
1.0040	57.621
1.0000	57.393
0.99600	57.297
0.99200	57.717
0.98800	57.171
0.98400	56.664
0.98000	55.960
0.97600	56.122
0.97200	55.908
0.96800	55.516
0.96400	55.467
0.96000	55.340
0.95600	55.085
0.95200	54.800
0.94800	54.300
0.94400	54.456
0.94000	54.358
0.93600	54.093
0.93200	53.828
0.92800	53.595
0.92400	53.235
0.92000	53.067
0.91600	52.850
0.91200	52.521
0.90800	52.163
0.90400	51.958
0.90000	51.564
0.89600	51.647
0.89200	51.341
0.88800	50.724
0.88400	50.660
0.88000	50.625
0.87600	50.225
0.87200	50.182
0.86800	50.056
0.86400	49.883
0.86000	49.740
0.85600	49.337
0.85200	49.116
0.84800	48.633
0.84400	48.534
0.84000	48.186
0.83600	48.176
0.83200	47.872
0.82800	47.783
0.82400	47.373
0.82000	47.288
0.81600	46.891
0.81200	46.714
0.80800	46.376
0.80400	45.816
0.80000	45.516
0.79900	45.516
0.79800	45.516
0.79700	45.843
0.79600	45.710
0.79500	45.709
0.79400	45.663
0.79300	45.428
0.79200	45.095
0.79100	44.999
0.79000	45.038
0.78900	45.227
0.78800	45.321
0.78700	45.125
0.78600	44.880
0.78500	45.074
0.78400	44.784
0.78300	44.732
0.78200	44.449
0.78100	44.549
0.78000	44.684
0.77900	44.632
0.77800	44.539
0.77700	44.159
0.77600	44.167
0.77500	44.163
0.77400	43.734
0.77300	43.676
0.77200	43.717
0.77100	43.624
0.77000	43.527
0.76900	43.621
0.76800	43.199
0.76700	43.524
0.76600	43.517
0.76500	43.234
0.76400	43.278
0.76300	43.041
0.76200	42.867
0.76100	42.528
0.76000	42.514
0.75900	42.697
0.75800	42.547
0.75700	42.687
0.75600	42.600
0.75500	42.171
0.75400	42.213
0.75300	42.159
0.75200	41.977
0.75100	41.935
0.75000	41.687
0.74900	41.784
0.74800	41.368
0.74700	41.863
0.74600	41.706
0.74500	41.584
0.74400	41.475
0.74300	41.198
0.74200	41.168
0.74100	41.409
0.74000	41.451
0.73900	41.198
0.73800	41.101
0.73700	40.949
0.73600	40.811
0.73500	40.811
0.73400	40.569
0.73300	40.410
0.73200	40.618
0.73100	40.729
0.73000	40.452
0.72900	40.576
0.72800	40.346
0.72700	40.355
0.72600	39.400
0.72500	39.676
0.72400	39.773
0.72300	39.530
0.72200	39.530
0.72100	39.732
0.72000	39.345
0.71900	39.539
0.71800	39.507
0.71700	39.369
0.71600	38.867
0.71500	39.272
0.71400	39.458
0.71300	39.027
0.71200	38.572
0.71100	38.355
0.71000	38.355
0.70900	38.199
0.70800	38.178
0.70700	38.610
0.70600	38.435
0.70500	38.594
0.70400	38.594
0.70300	38.298
0.70200	38.027
0.70100	37.985
0.70000	37.946
0.69900	40.228
0.69800	38.357
0.69700	38.005
0.69600	37.537
0.69500	37.518
0.69400	37.638
0.69300	37.299
0.69200	37.199
0.69100	36.918
0.69000	36.779
0.68900	37.276
0.68800	37.057
0.68700	36.718
0.68600	36.718
0.68500	36.735
0.68400	36.457
0.68300	36.434
0.68200	36.451
0.68100	36.373
0.68000	36.357
0.67900	36.141
0.67800	35.841
0.67700	36.126
0.67600	36.049
0.67500	35.933
0.67400	35.871
0.67300	35.632
0.67200	35.442
0.67100	35.369
0.67000	35.331
0.66900	35.218
0.66800	35.421
0.66700	35.093
0.66600	35.017
0.66500	34.830
0.66400	34.655
0.66300	34.804
0.66200	35.056
0.66100	34.917
0.66000	34.402
0.65900	34.513
0.65800	34.930
0.65700	34.841
0.65600	34.664
0.65500	34.413
0.65400	34.360
0.65300	34.323
0.65200	34.129
0.65100	34.166
0.65000	33.853
0.64900	33.909
0.64800	33.707
0.64700	33.817
0.64600	33.551
0.64500	33.615
0.64400	33.506
0.64300	33.304
0.64200	33.478
0.64100	33.449
0.64000	33.348
0.63900	33.044
0.63800	32.942
0.63700	32.973
0.63600	32.937
0.63500	32.800
0.63400	32.735
0.63300	32.634
0.63200	32.468
0.63100	32.397
0.63000	32.610
0.62900	32.508
0.62800	32.305
0.62700	32.098
0.62600	32.098
0.62500	31.896
0.62400	31.729
0.62300	31.868
0.62200	31.868
0.62100	31.528
0.62000	31.766
0.61900	31.461
0.61800	31.496
0.61700	31.528
0.61600	31.393
0.61500	31.121
0.61400	31.121
0.61300	30.952
0.61200	30.683
0.61100	30.784
0.61000	30.683
0.60900	30.683
0.60800	30.582
0.60700	30.615
0.60600	30.683
0.60500	30.615
0.60400	30.412
0.60300	30.172
0.60200	30.410
0.60100	30.340
0.60000	30.034
0.59900	30.001
0.59800	30.032
0.59700	29.996
0.59600	30.131
0.59500	30.232
0.59400	29.751
0.59300	29.785
0.59200	29.821
0.59100	29.718
0.59000	29.515
0.58900	29.648
0.58800	29.474
0.58700	29.408
0.58600	29.202
0.58500	29.001
0.58400	29.202
0.58300	29.197
0.58200	29.104
0.58100	29.164
0.58000	29.202
0.57900	29.164
0.57800	29.099
0.57700	28.996
0.57600	28.892
0.57500	28.892
0.57400	28.690
0.57300	28.743
0.57200	28.490
0.57100	28.654
0.57000	28.718
0.56900	28.584
0.56800	28.451
0.56700	28.350
0.56600	28.381
0.56500	28.381
0.56400	28.178
0.56300	28.046
0.56200	27.944
0.56100	27.803
0.56000	27.896
0.55900	26.395
0.55800	27.584
0.55700	27.400
0.55600	27.226
0.55500	27.014
0.55400	26.820
0.55300	26.558
0.55200	26.571
0.55100	26.549
0.55000	26.817
0.54900	26.910
0.54800	26.811
0.54700	26.608
0.54600	26.683
0.54500	26.354
0.54400	26.032
0.54300	26.271
0.54200	26.101
0.54100	26.372
0.54000	26.073
0.53900	25.918
0.53800	26.031
0.53700	26.060
0.53600	25.747
0.53500	25.747
0.53400	25.732
0.53300	25.521
0.53200	25.607
0.53100	25.535
0.53000	25.619
0.52900	25.250
0.52800	25.178
0.52700	24.997
0.52600	25.113
0.52500	25.421
0.52400	25.261
0.52300	24.789
0.52200	24.663
0.52100	24.519
0.52000	24.356
0.51900	24.490
0.51800	24.349
0.51700	24.125
0.51600	24.256
0.51500	24.170
0.51400	23.968
0.51300	24.071
0.51200	23.932
0.51100	23.579
0.51000	23.735
0.50900	23.985
0.50800	23.482
0.50700	23.384
0.50600	23.233
0.50500	23.087
0.50400	23.064
0.50300	23.010
0.50200	23.281
0.50100	22.989
0.50000	22.915
0.49900	22.866
0.49800	22.668
0.49700	22.866
0.49600	22.571
0.49500	22.743
0.49400	22.594
0.49300	22.110
0.49200	22.275
0.49100	22.275
0.49000	22.248
0.48900	21.833
0.48800	22.006
0.48700	21.762
0.48600	21.689
0.48500	21.689
0.48400	21.786
0.48300	21.684
0.48200	21.849
0.48100	21.755
0.48000	21.585
0.47900	21.419
0.47800	21.218
0.47700	21.218
0.47600	21.164
0.47500	20.944
0.47400	21.119
0.47300	21.051
0.47200	20.854
0.47100	20.802
0.47000	20.954
0.46900	20.595
0.46800	20.497
0.46700	20.540
0.46600	20.399
0.46500	20.528
0.46400	20.432
0.46300	20.626
0.46200	20.247
0.46100	20.071
0.46000	20.129
0.45900	20.123
0.45800	20.377
0.45700	20.055
0.45600	20.185
0.45500	19.834
0.45400	20.266
0.45300	20.114
0.45200	19.952
0.45100	19.855
0.45000	19.651
0.44900	19.733
0.44800	19.528
0.44700	19.449
0.44600	19.259
0.44500	19.054
0.44400	18.947
0.44300	19.217
0.44200	19.032
0.44100	18.879
0.44000	18.960
0.43900	18.629
0.43800	18.748
0.43700	18.952
0.43600	18.629
0.43500	18.316
0.43400	18.044
0.43300	18.289
0.43200	18.144
0.43100	18.147
0.43000	18.078
0.42900	18.088
0.42800	17.553
0.42700	17.611
0.42600	17.678
0.42500	17.408
0.42400	17.251
0.42300	17.448
0.42200	17.151
0.42100	17.113
0.42000	17.348
0.41900	17.009
0.41800	16.953
0.41700	16.953
0.41600	16.849
0.41500	16.641
0.41400	16.758
0.41300	16.459
0.41200	16.449
0.41100	16.317
0.41000	16.219
0.40900	15.978
0.40800	16.352
0.40700	16.193
0.40600	15.985
0.40500	15.893
0.40400	15.904
0.40300	15.805
0.40200	15.689
0.40100	15.566
0.40000	15.627
0.0000	
