Name: Carbonaceous Shale 
Type:  Rocks
Class:  Sedimentary
Subclass: Shale 
Particle Size:  0 - 75 Micrometers
Sample No.:  shale.6
Owner:  JHU
Wavelength Range:  All
Origin:  Sample No. 388,  The Hunt and Salisbury Collection at the U.S. 
Geological Survey, Denver, Co.
Description: Sample is foraminiferid ooze. In contrast to shale.3, there 
is more brown clay material in the groundmass, and about equal 
amounts of quartz and carbonate. There are also numerous granules 
of carbonaceous material and/or an opaque phase disseminated 
throughout the sample, resulting in a very dark color. The biserial 
and trocho/plani- spiral tests are filled with recrystallized calcite.
Measurement:  Directional (10 Degree) Hemispherical Reflectance
First Column:  X
Second Column:  Y  
X Units:  Wavelength (micrometers)
Y Units:  Reflectance (percent)
First X Value: 14.0112
Last X Value:  0.4
Number of X Values: 2844
Additional Information:  None

14.983	5.7236
14.940	5.5512
14.897	5.4648
14.854	5.4934
14.812	5.6208
14.770	5.7980
14.728	5.9670
14.686	6.0784
14.645	6.1008
14.603	6.0191
14.562	5.8380
14.521	5.5862
14.481	5.3096
14.441	5.0650
14.400	4.9068
14.361	4.8632
14.321	4.9168
14.281	4.9973
14.242	5.0027
14.203	4.8422
14.164	4.4770
14.126	3.9484
14.087	3.3725
14.049	2.9012
14.011	2.6677
13.973	2.7364
13.936	3.0831
13.899	3.6124
13.861	4.1999
13.824	4.7375
13.788	5.1631
13.751	5.4681
13.715	5.6805
13.679	5.8377
13.643	5.9663
13.607	6.0741
13.571	6.1558
13.536	6.2027
13.500	6.2114
13.465	6.1885
13.430	6.1456
13.396	6.0959
13.361	6.0495
13.327	6.0118
13.293	5.9846
13.259	5.9678
13.225	5.9621
13.191	5.9656
13.158	5.9739
13.124	5.9756
13.091	5.9547
13.058	5.8915
13.026	5.7679
12.993	5.5768
12.960	5.3272
12.928	5.0442
12.896	4.7666
12.864	4.5353
12.832	4.3806
12.800	4.3131
12.769	4.3193
12.737	4.3657
12.706	4.4088
12.675	4.4093
12.644	4.3434
12.614	4.2111
12.583	4.0353
12.552	3.8587
12.522	3.7310
12.492	3.6979
12.462	3.7895
12.432	4.0126
12.402	4.3501
12.373	4.7659
12.343	5.2130
12.314	5.6447
12.285	6.0232
12.256	6.3254
12.227	6.5444
12.198	6.6879
12.169	6.7732
12.141	6.8238
12.113	6.8679
12.084	6.9328
12.056	7.0410
12.028	7.2025
12.000	7.4097
11.973	7.6328
11.945	7.8246
11.918	7.9402
11.890	7.9617
11.863	7.9096
11.836	7.8393
11.809	7.8249
11.782	7.9265
11.755	8.1602
11.729	8.4839
11.702	8.8145
11.676	9.0516
11.650	9.1030
11.624	8.9036
11.598	8.4290
11.572	7.6963
11.546	6.7573
11.520	5.6921
11.495	4.6063
11.469	3.6162
11.444	2.8290
11.419	2.3281
11.394	2.1605
11.369	2.3298
11.344	2.7935
11.319	3.4701
11.294	4.2532
11.270	5.0278
11.245	5.6900
11.221	6.1674
11.197	6.4319
11.173	6.4970
11.149	6.4063
11.125	6.2150
11.101	5.9753
11.077	5.7255
11.054	5.4873
11.030	5.2725
11.007	5.0878
10.983	4.9381
10.960	4.8261
10.937	4.7517
10.914	4.7103
10.891	4.6925
10.868	4.6875
10.846	4.6849
10.823	4.6785
10.800	4.6669
10.778	4.6525
10.755	4.6390
10.733	4.6302
10.711	4.6283
10.689	4.6331
10.667	4.6430
10.645	4.6575
10.623	4.6750
10.602	4.6942
10.580	4.7136
10.558	4.7297
10.537	4.7382
10.516	4.7347
10.494	4.7150
10.473	4.6766
10.452	4.6193
10.431	4.5447
10.410	4.4564
10.389	4.3591
10.368	4.2568
10.348	4.1528
10.327	4.0491
10.306	3.9454
10.286	3.8412
10.266	3.7358
10.245	3.6292
10.225	3.5236
10.205	3.4215
10.185	3.3263
10.165	3.2411
10.145	3.1667
10.125	3.1032
10.106	3.0490
10.086	3.0007
10.066	2.9557
10.047	2.9119
10.027	2.8685
10.008	2.8262
9.9887	2.7866
9.9695	2.7506
9.9504	2.7186
9.9313	2.6895
9.9123	2.6625
9.8934	2.6367
9.8746	2.6133
9.8558	2.5938
9.8371	2.5803
9.8185	2.5735
9.7999	2.5725
9.7814	2.5754
9.7630	2.5803
9.7447	2.5863
9.7264	2.5934
9.7082	2.6021
9.6900	2.6128
9.6719	2.6253
9.6539	2.6386
9.6360	2.6514
9.6181	2.6635
9.6003	2.6746
9.5825	2.6862
9.5649	2.6990
9.5472	2.7137
9.5297	2.7312
9.5122	2.7520
9.4948	2.7774
9.4774	2.8089
9.4601	2.8487
9.4429	2.8991
9.4257	2.9626
9.4086	3.0398
9.3916	3.1307
9.3746	3.2321
9.3577	3.3384
9.3408	3.4435
9.3240	3.5404
9.3073	3.6226
9.2906	3.6863
9.2740	3.7313
9.2574	3.7611
9.2409	3.7805
9.2245	3.7950
9.2081	3.8082
9.1918	3.8229
9.1755	3.8378
9.1593	3.8516
9.1431	3.8625
9.1270	3.8696
9.1110	3.8729
9.0950	3.8724
9.0791	3.8686
9.0632	3.8625
9.0474	3.8549
9.0316	3.8478
9.0159	3.8435
9.0003	3.8435
8.9847	3.8478
8.9691	3.8547
8.9536	3.8622
8.9382	3.8696
8.9228	3.8771
8.9075	3.8871
8.8922	3.9025
8.8770	3.9266
8.8618	3.9603
8.8467	4.0031
8.8316	4.0522
8.8166	4.1040
8.8016	4.1556
8.7867	4.2051
8.7718	4.2520
8.7570	4.2963
8.7422	4.3387
8.7275	4.3775
8.7129	4.4088
8.6982	4.4275
8.6837	4.4287
8.6692	4.4109
8.6547	4.3790
8.6403	4.3427
8.6259	4.3167
8.6116	4.3145
8.5973	4.3451
8.5830	4.4102
8.5688	4.5040
8.5547	4.6160
8.5406	4.7354
8.5266	4.8545
8.5126	4.9701
8.4986	5.0835
8.4847	5.1988
8.4708	5.3208
8.4570	5.4529
8.4432	5.5979
8.4295	5.7572
8.4158	5.9322
8.4022	6.1236
8.3886	6.3320
8.3750	6.5574
8.3615	6.7999
8.3481	7.0600
8.3347	7.3375
8.3213	7.6333
8.3079	7.9482
8.2946	8.2824
8.2814	8.6350
8.2682	9.0040
8.2550	9.3848
8.2419	9.7713
8.2288	10.155
8.2158	10.526
8.2028	10.874
8.1898	11.190
8.1769	11.465
8.1640	11.696
8.1512	11.879
8.1384	12.018
8.1256	12.121
8.1129	12.197
8.1002	12.261
8.0876	12.325
8.0750	12.402
8.0624	12.498
8.0499	12.617
8.0374	12.756
8.0250	12.907
8.0126	13.058
8.0002	13.197
7.9879	13.309
7.9756	13.387
7.9634	13.425
7.9512	13.425
7.9390	13.397
7.9268	13.356
7.9147	13.318
7.9027	13.294
7.8906	13.291
7.8786	13.306
7.8667	13.332
7.8548	13.357
7.8429	13.374
7.8310	13.381
7.8192	13.385
7.8075	13.393
7.7957	13.415
7.7840	13.455
7.7723	13.507
7.7607	13.562
7.7491	13.605
7.7375	13.622
7.7260	13.604
7.7145	13.546
7.7031	13.449
7.6916	13.318
7.6802	13.158
7.6689	12.979
7.6575	12.789
7.6462	12.596
7.6350	12.409
7.6238	12.236
7.6126	12.082
7.6014	11.953
7.5903	11.851
7.5792	11.775
7.5681	11.720
7.5571	11.681
7.5461	11.649
7.5351	11.616
7.5242	11.574
7.5133	11.518
7.5024	11.443
7.4916	11.348
7.4807	11.234
7.4700	11.103
7.4592	10.959
7.4485	10.805
7.4378	10.643
7.4272	10.476
7.4165	10.300
7.4059	10.112
7.3954	9.9058
7.3848	9.6751
7.3743	9.4144
7.3639	9.1210
7.3534	8.7949
7.3430	8.4413
7.3326	8.0686
7.3223	7.6882
7.3119	7.3126
7.3016	6.9536
7.2914	6.6207
7.2811	6.3173
7.2709	6.0424
7.2607	5.7885
7.2506	5.5460
7.2404	5.3051
7.2303	5.0598
7.2203	4.8083
7.2102	4.5549
7.2002	4.3077
7.1902	4.0763
7.1803	3.8715
7.1703	3.7024
7.1604	3.5757
7.1506	3.4947
7.1407	3.4570
7.1309	3.4537
7.1211	3.4712
7.1113	3.4923
7.1016	3.5011
7.0919	3.4869
7.0822	3.4459
7.0725	3.3810
7.0629	3.3005
7.0533	3.2134
7.0437	3.1286
7.0341	3.0509
7.0246	2.9825
7.0151	2.9228
7.0056	2.8697
6.9962	2.8212
6.9867	2.7760
6.9773	2.7329
6.9679	2.6931
6.9586	2.6571
6.9493	2.6263
6.9400	2.6012
6.9307	2.5811
6.9214	2.5650
6.9122	2.5505
6.9030	2.5361
6.8938	2.5211
6.8847	2.5065
6.8755	2.4944
6.8664	2.4870
6.8573	2.4859
6.8483	2.4901
6.8393	2.4972
6.8302	2.5034
6.8213	2.5062
6.8123	2.5053
6.8034	2.5031
6.7944	2.5036
6.7855	2.5114
6.7767	2.5287
6.7678	2.5552
6.7590	2.5872
6.7502	2.6197
6.7414	2.6488
6.7327	2.6729
6.7239	2.6940
6.7152	2.7158
6.7065	2.7428
6.6979	2.7771
6.6892	2.8188
6.6806	2.8655
6.6720	2.9147
6.6634	2.9659
6.6549	3.0199
6.6464	3.0796
6.6378	3.1478
6.6294	3.2257
6.6209	3.3112
6.6124	3.4007
6.6040	3.4911
6.5956	3.5809
6.5872	3.6714
6.5789	3.7661
6.5705	3.8689
6.5622	3.9811
6.5539	4.1009
6.5456	4.2231
6.5374	4.3415
6.5292	4.4510
6.5209	4.5511
6.5128	4.6475
6.5046	4.7534
6.4964	4.8843
6.4883	5.0553
6.4802	5.2732
6.4721	5.5327
6.4640	5.8152
6.4560	6.0928
6.4480	6.3360
6.4399	6.5224
6.4320	6.6427
6.4240	6.7021
6.4160	6.7156
6.4081	6.7005
6.4002	6.6699
6.3923	6.6285
6.3844	6.5738
6.3766	6.4985
6.3687	6.3959
6.3609	6.2628
6.3531	6.1013
6.3454	5.9190
6.3376	5.7269
6.3299	5.5384
6.3221	5.3670
6.3144	5.2246
6.3068	5.1197
6.2991	5.0553
6.2914	5.0278
6.2838	5.0276
6.2762	5.0413
6.2686	5.0551
6.2611	5.0586
6.2535	5.0468
6.2460	5.0200
6.2385	4.9826
6.2310	4.9402
6.2235	4.8969
6.2160	4.8557
6.2086	4.8178
6.2011	4.7849
6.1937	4.7602
6.1863	4.7482
6.1790	4.7538
6.1716	4.7797
6.1643	4.8258
6.1570	4.8884
6.1496	4.9618
6.1424	5.0392
6.1351	5.1166
6.1278	5.1931
6.1206	5.2708
6.1134	5.3509
6.1062	5.4337
6.0990	5.5169
6.0918	5.5948
6.0847	5.6632
6.0776	5.7227
6.0704	5.7795
6.0633	5.8446
6.0563	5.9299
6.0492	6.0424
6.0421	6.1826
6.0351	6.3412
6.0281	6.5049
6.0211	6.6604
6.0141	6.7997
6.0071	6.9205
6.0002	7.0263
5.9932	7.1232
5.9863	7.2167
5.9794	7.3084
5.9725	7.3965
5.9657	7.4801
5.9588	7.5611
5.9520	7.6451
5.9451	7.7413
5.9383	7.8571
5.9315	7.9958
5.9247	8.1531
5.9180	8.3189
5.9112	8.4827
5.9045	8.6388
5.8978	8.7885
5.8911	8.9391
5.8844	9.0978
5.8777	9.2675
5.8711	9.4435
5.8644	9.6121
5.8578	9.7597
5.8512	9.8764
5.8446	9.9626
5.8380	10.028
5.8314	10.087
5.8249	10.152
5.8184	10.231
5.8118	10.318
5.8053	10.400
5.7988	10.464
5.7923	10.500
5.7859	10.510
5.7794	10.506
5.7730	10.505
5.7666	10.524
5.7602	10.575
5.7538	10.659
5.7474	10.769
5.7410	10.898
5.7347	11.035
5.7283	11.174
5.7220	11.311
5.7157	11.445
5.7094	11.578
5.7031	11.710
5.6969	11.844
5.6906	11.981
5.6844	12.121
5.6782	12.261
5.6719	12.396
5.6657	12.515
5.6596	12.609
5.6534	12.671
5.6472	12.692
5.6411	12.662
5.6349	12.563
5.6288	12.363
5.6227	12.018
5.6166	11.480
5.6106	10.710
5.6045	9.7059
5.5984	8.5090
5.5924	7.2120
5.5864	5.9479
5.5804	4.8696
5.5744	4.1232
5.5684	3.8172
5.5624	4.0031
5.5564	4.6662
5.5505	5.7257
5.5445	7.0491
5.5386	8.4792
5.5327	9.8669
5.5268	11.099
5.5209	12.114
5.5151	12.905
5.5092	13.508
5.5033	13.978
5.4975	14.369
5.4917	14.724
5.4859	15.068
5.4801	15.410
5.4743	15.752
5.4685	16.087
5.4628	16.408
5.4570	16.705
5.4513	16.966
5.4455	17.184
5.4398	17.357
5.4341	17.486
5.4284	17.576
5.4228	17.634
5.4171	17.661
5.4114	17.657
5.4058	17.617
5.4002	17.537
5.3945	17.419
5.3889	17.269
5.3833	17.101
5.3778	16.930
5.3722	16.774
5.3666	16.650
5.3611	16.570
5.3555	16.539
5.3500	16.559
5.3445	16.624
5.3390	16.724
5.3335	16.846
5.3280	16.981
5.3225	17.121
5.3171	17.262
5.3116	17.405
5.3062	17.553
5.3008	17.711
5.2954	17.882
5.2900	18.069
5.2846	18.274
5.2792	18.498
5.2738	18.739
5.2684	18.995
5.2631	19.262
5.2578	19.537
5.2524	19.817
5.2471	20.102
5.2418	20.387
5.2365	20.668
5.2312	20.939
5.2260	21.192
5.2207	21.420
5.2154	21.619
5.2102	21.789
5.2050	21.931
5.1998	22.048
5.1945	22.146
5.1893	22.229
5.1842	22.300
5.1790	22.359
5.1738	22.410
5.1686	22.453
5.1635	22.491
5.1584	22.529
5.1532	22.569
5.1481	22.615
5.1430	22.665
5.1379	22.715
5.1328	22.755
5.1277	22.774
5.1227	22.763
5.1176	22.722
5.1126	22.660
5.1075	22.595
5.1025	22.547
5.0975	22.532
5.0925	22.555
5.0875	22.608
5.0825	22.677
5.0775	22.746
5.0726	22.802
5.0676	22.843
5.0627	22.869
5.0577	22.890
5.0528	22.909
5.0479	22.930
5.0430	22.950
5.0380	22.969
5.0332	22.984
5.0283	22.995
5.0234	23.005
5.0185	23.019
5.0137	23.041
5.0088	23.076
5.0040	23.126
4.9992	23.194
4.9944	23.281
4.9896	23.388
4.9848	23.516
4.9800	23.664
4.9752	23.829
4.9704	24.005
4.9657	24.182
4.9609	24.350
4.9562	24.500
4.9514	24.628
4.9467	24.733
4.9420	24.821
4.9373	24.899
4.9326	24.978
4.9279	25.066
4.9232	25.169
4.9186	25.290
4.9139	25.429
4.9092	25.579
4.9046	25.735
4.9000	25.889
4.8953	26.035
4.8907	26.168
4.8861	26.285
4.8815	26.388
4.8769	26.477
4.8723	26.557
4.8678	26.628
4.8632	26.695
4.8586	26.757
4.8541	26.816
4.8495	26.872
4.8450	26.925
4.8405	26.974
4.8360	27.018
4.8315	27.055
4.8270	27.087
4.8225	27.115
4.8180	27.142
4.8135	27.167
4.8090	27.193
4.8046	27.219
4.8001	27.244
4.7957	27.265
4.7913	27.282
4.7868	27.295
4.7824	27.304
4.7780	27.312
4.7736	27.318
4.7692	27.324
4.7648	27.328
4.7605	27.330
4.7561	27.328
4.7517	27.321
4.7474	27.310
4.7431	27.289
4.7387	27.257
4.7344	27.207
4.7301	27.132
4.7258	27.026
4.7215	26.885
4.7172	26.710
4.7129	26.505
4.7086	26.280
4.7043	26.047
4.7000	25.819
4.6958	25.608
4.6915	25.423
4.6873	25.271
4.6831	25.154
4.6788	25.074
4.6746	25.032
4.6704	25.030
4.6662	25.070
4.6620	25.156
4.6578	25.289
4.6536	25.465
4.6495	25.678
4.6453	25.913
4.6411	26.155
4.6370	26.392
4.6328	26.610
4.6287	26.804
4.6246	26.971
4.6205	27.111
4.6163	27.226
4.6122	27.320
4.6081	27.398
4.6040	27.463
4.6000	27.521
4.5959	27.573
4.5918	27.619
4.5877	27.661
4.5837	27.698
4.5796	27.729
4.5756	27.755
4.5716	27.777
4.5675	27.796
4.5635	27.814
4.5595	27.831
4.5555	27.848
4.5515	27.865
4.5475	27.879
4.5435	27.892
4.5395	27.901
4.5356	27.907
4.5316	27.909
4.5276	27.909
4.5237	27.908
4.5197	27.906
4.5158	27.905
4.5119	27.908
4.5080	27.914
4.5040	27.927
4.5001	27.946
4.4962	27.972
4.4923	28.005
4.4884	28.043
4.4846	28.085
4.4807	28.129
4.4768	28.174
4.4730	28.218
4.4691	28.262
4.4652	28.305
4.4614	28.346
4.4576	28.388
4.4537	28.430
4.4499	28.473
4.4461	28.516
4.4423	28.561
4.4385	28.607
4.4347	28.652
4.4309	28.695
4.4271	28.737
4.4233	28.775
4.4196	28.811
4.4158	28.845
4.4120	28.878
4.4083	28.910
4.4045	28.942
4.4008	28.973
4.3971	29.004
4.3934	29.035
4.3896	29.064
4.3859	29.090
4.3822	29.113
4.3785	29.131
4.3748	29.144
4.3711	29.151
4.3674	29.154
4.3638	29.153
4.3601	29.147
4.3564	29.138
4.3528	29.126
4.3491	29.112
4.3455	29.098
4.3418	29.084
4.3382	29.073
4.3346	29.065
4.3310	29.060
4.3273	29.056
4.3237	29.051
4.3201	29.045
4.3165	29.035
4.3129	29.021
4.3094	29.003
4.3058	28.985
4.3022	28.966
4.2986	28.947
4.2951	28.928
4.2915	28.905
4.2880	28.874
4.2844	28.835
4.2809	28.788
4.2774	28.739
4.2738	28.696
4.2703	28.669
4.2668	28.665
4.2633	28.687
4.2598	28.731
4.2563	28.790
4.2528	28.855
4.2493	28.916
4.2458	28.969
4.2424	29.013
4.2389	29.050
4.2354	29.082
4.2320	29.111
4.2285	29.137
4.2251	29.160
4.2216	29.179
4.2182	29.195
4.2148	29.208
4.2113	29.219
4.2079	29.228
4.2045	29.234
4.2011	29.236
4.1977	29.233
4.1943	29.226
4.1909	29.214
4.1875	29.201
4.1841	29.186
4.1808	29.172
4.1774	29.158
4.1740	29.144
4.1707	29.129
4.1673	29.110
4.1640	29.088
4.1606	29.062
4.1573	29.032
4.1540	28.998
4.1506	28.961
4.1473	28.922
4.1440	28.882
4.1407	28.840
4.1374	28.797
4.1341	28.752
4.1308	28.704
4.1275	28.651
4.1242	28.594
4.1209	28.530
4.1177	28.462
4.1144	28.388
4.1111	28.310
4.1079	28.229
4.1046	28.146
4.1014	28.060
4.0981	27.972
4.0949	27.879
4.0917	27.780
4.0884	27.670
4.0852	27.549
4.0820	27.414
4.0788	27.267
4.0756	27.107
4.0724	26.937
4.0692	26.757
4.0660	26.562
4.0628	26.345
4.0596	26.092
4.0565	25.788
4.0533	25.415
4.0501	24.961
4.0470	24.423
4.0438	23.808
4.0406	23.133
4.0375	22.425
4.0344	21.711
4.0312	21.009
4.0281	20.325
4.0250	19.648
4.0218	18.953
4.0187	18.209
4.0156	17.391
4.0125	16.486
4.0094	15.504
4.0063	14.473
4.0032	13.432
4.0001	12.428
3.9970	11.505
3.9940	10.696
3.9909	10.026
3.9878	9.5053
3.9847	9.1333
3.9817	8.9002
3.9786	8.7899
3.9756	8.7840
3.9725	8.8661
3.9695	9.0269
3.9665	9.2654
3.9634	9.5889
3.9604	10.008
3.9574	10.534
3.9544	11.167
3.9513	11.896
3.9483	12.690
3.9453	13.503
3.9423	14.279
3.9393	14.967
3.9363	15.533
3.9333	15.965
3.9304	16.278
3.9274	16.504
3.9244	16.680
3.9214	16.835
3.9185	16.989
3.9155	17.144
3.9126	17.295
3.9096	17.436
3.9067	17.561
3.9037	17.668
3.9008	17.760
3.8979	17.840
3.8949	17.914
3.8920	17.982
3.8891	18.048
3.8862	18.111
3.8833	18.171
3.8804	18.228
3.8775	18.283
3.8746	18.337
3.8717	18.392
3.8688	18.451
3.8659	18.514
3.8630	18.582
3.8601	18.654
3.8573	18.731
3.8544	18.815
3.8515	18.912
3.8487	19.031
3.8458	19.183
3.8430	19.380
3.8401	19.629
3.8373	19.931
3.8344	20.280
3.8316	20.665
3.8288	21.072
3.8259	21.489
3.8231	21.906
3.8203	22.319
3.8175	22.729
3.8147	23.141
3.8119	23.561
3.8091	23.993
3.8063	24.440
3.8035	24.897
3.8007	25.357
3.7979	25.806
3.7951	26.229
3.7924	26.612
3.7896	26.942
3.7868	27.215
3.7841	27.432
3.7813	27.600
3.7785	27.730
3.7758	27.835
3.7730	27.923
3.7703	28.000
3.7676	28.067
3.7648	28.125
3.7621	28.172
3.7594	28.207
3.7566	28.233
3.7539	28.251
3.7512	28.267
3.7485	28.285
3.7458	28.305
3.7431	28.328
3.7404	28.352
3.7377	28.374
3.7350	28.392
3.7323	28.403
3.7296	28.410
3.7269	28.412
3.7242	28.412
3.7216	28.410
3.7189	28.408
3.7162	28.405
3.7136	28.401
3.7109	28.394
3.7083	28.385
3.7056	28.373
3.7030	28.358
3.7003	28.339
3.6977	28.317
3.6950	28.294
3.6924	28.268
3.6898	28.241
3.6872	28.212
3.6845	28.181
3.6819	28.147
3.6793	28.112
3.6767	28.075
3.6741	28.039
3.6715	28.006
3.6689	27.976
3.6663	27.948
3.6637	27.921
3.6611	27.894
3.6585	27.866
3.6560	27.837
3.6534	27.807
3.6508	27.778
3.6482	27.748
3.6457	27.717
3.6431	27.684
3.6406	27.649
3.6380	27.609
3.6355	27.565
3.6329	27.517
3.6304	27.466
3.6278	27.414
3.6253	27.361
3.6227	27.308
3.6202	27.253
3.6177	27.195
3.6152	27.131
3.6127	27.059
3.6101	26.981
3.6076	26.897
3.6051	26.810
3.6026	26.719
3.6001	26.624
3.5976	26.523
3.5951	26.415
3.5926	26.296
3.5901	26.167
3.5876	26.025
3.5852	25.871
3.5827	25.706
3.5802	25.535
3.5777	25.364
3.5753	25.201
3.5728	25.053
3.5704	24.924
3.5679	24.813
3.5654	24.716
3.5630	24.623
3.5605	24.524
3.5581	24.411
3.5557	24.280
3.5532	24.131
3.5508	23.963
3.5484	23.777
3.5459	23.569
3.5435	23.332
3.5411	23.054
3.5387	22.725
3.5363	22.332
3.5338	21.868
3.5314	21.330
3.5290	20.722
3.5266	20.056
3.5242	19.351
3.5218	18.631
3.5195	17.923
3.5171	17.253
3.5147	16.643
3.5123	16.106
3.5099	15.646
3.5075	15.261
3.5052	14.939
3.5028	14.670
3.5004	14.436
3.4981	14.226
3.4957	14.024
3.4934	13.821
3.4910	13.611
3.4887	13.396
3.4863	13.188
3.4840	13.008
3.4816	12.886
3.4793	12.854
3.4770	12.936
3.4746	13.147
3.4723	13.476
3.4700	13.894
3.4677	14.354
3.4653	14.804
3.4630	15.196
3.4607	15.500
3.4584	15.703
3.4561	15.813
3.4538	15.850
3.4515	15.836
3.4492	15.791
3.4469	15.730
3.4446	15.658
3.4423	15.575
3.4400	15.478
3.4378	15.362
3.4355	15.223
3.4332	15.061
3.4309	14.881
3.4287	14.692
3.4264	14.509
3.4241	14.348
3.4219	14.228
3.4196	14.158
3.4174	14.146
3.4151	14.186
3.4129	14.271
3.4106	14.386
3.4084	14.513
3.4061	14.637
3.4039	14.745
3.4017	14.827
3.3994	14.877
3.3972	14.893
3.3950	14.878
3.3928	14.840
3.3906	14.788
3.3883	14.734
3.3861	14.690
3.3839	14.667
3.3817	14.670
3.3795	14.704
3.3773	14.765
3.3751	14.848
3.3729	14.942
3.3707	15.031
3.3685	15.097
3.3663	15.123
3.3641	15.096
3.3620	15.013
3.3598	14.887
3.3576	14.742
3.3554	14.619
3.3533	14.567
3.3511	14.631
3.3489	14.845
3.3468	15.222
3.3446	15.745
3.3425	16.368
3.3403	17.034
3.3382	17.676
3.3360	18.244
3.3339	18.704
3.3317	19.049
3.3296	19.289
3.3274	19.447
3.3253	19.549
3.3232	19.615
3.3210	19.660
3.3189	19.692
3.3168	19.716
3.3147	19.734
3.3126	19.750
3.3104	19.765
3.3083	19.783
3.3062	19.804
3.3041	19.829
3.3020	19.856
3.2999	19.883
3.2978	19.906
3.2957	19.927
3.2936	19.944
3.2915	19.957
3.2894	19.968
3.2874	19.977
3.2853	19.983
3.2832	19.988
3.2811	19.993
3.2790	19.998
3.2770	20.005
3.2749	20.016
3.2728	20.033
3.2708	20.055
3.2687	20.082
3.2666	20.114
3.2646	20.148
3.2625	20.184
3.2605	20.218
3.2584	20.250
3.2564	20.279
3.2543	20.304
3.2523	20.325
3.2503	20.345
3.2482	20.364
3.2462	20.381
3.2442	20.397
3.2421	20.410
3.2401	20.418
3.2381	20.420
3.2361	20.416
3.2340	20.406
3.2320	20.390
3.2300	20.370
3.2280	20.348
3.2260	20.324
3.2240	20.298
3.2220	20.269
3.2200	20.236
3.2180	20.198
3.2160	20.156
3.2140	20.113
3.2120	20.072
3.2100	20.034
3.2080	19.998
3.2060	19.964
3.2040	19.928
3.2021	19.889
3.2001	19.847
3.1981	19.803
3.1961	19.761
3.1942	19.721
3.1922	19.683
3.1902	19.645
3.1883	19.605
3.1863	19.560
3.1844	19.511
3.1824	19.458
3.1805	19.403
3.1785	19.348
3.1766	19.294
3.1746	19.241
3.1727	19.190
3.1707	19.139
3.1688	19.088
3.1669	19.035
3.1649	18.979
3.1630	18.920
3.1611	18.855
3.1591	18.788
3.1572	18.719
3.1553	18.653
3.1534	18.590
3.1515	18.531
3.1495	18.476
3.1476	18.423
3.1457	18.371
3.1438	18.319
3.1419	18.267
3.1400	18.217
3.1381	18.167
3.1362	18.118
3.1343	18.071
3.1324	18.024
3.1305	17.976
3.1286	17.924
3.1268	17.868
3.1249	17.808
3.1230	17.744
3.1211	17.678
3.1192	17.614
3.1174	17.552
3.1155	17.492
3.1136	17.432
3.1117	17.372
3.1099	17.310
3.1080	17.246
3.1061	17.181
3.1043	17.117
3.1024	17.055
3.1006	16.996
3.0987	16.941
3.0969	16.890
3.0950	16.841
3.0932	16.795
3.0913	16.750
3.0895	16.708
3.0876	16.668
3.0858	16.632
3.0840	16.599
3.0821	16.568
3.0803	16.537
3.0785	16.504
3.0766	16.467
3.0748	16.424
3.0730	16.377
3.0712	16.327
3.0694	16.278
3.0675	16.230
3.0657	16.186
3.0639	16.146
3.0621	16.107
3.0603	16.069
3.0585	16.031
3.0567	15.992
3.0549	15.955
3.0531	15.920
3.0513	15.886
3.0495	15.854
3.0477	15.822
3.0459	15.792
3.0441	15.761
3.0423	15.731
3.0406	15.702
3.0388	15.674
3.0370	15.647
3.0352	15.622
3.0334	15.597
3.0317	15.574
3.0299	15.554
3.0281	15.536
3.0264	15.521
3.0246	15.509
3.0228	15.498
3.0211	15.488
3.0193	15.478
3.0176	15.468
3.0158	15.457
3.0140	15.445
3.0123	15.434
3.0105	15.423
3.0088	15.415
3.0070	15.410
3.0053	15.409
3.0036	15.413
3.0018	15.419
3.0001	15.426
2.9984	15.434
2.9966	15.443
2.9949	15.457
2.9932	15.475
2.9914	15.500
2.9897	15.530
2.9880	15.563
2.9863	15.597
2.9845	15.630
2.9828	15.661
2.9811	15.687
2.9794	15.707
2.9777	15.718
2.9760	15.722
2.9743	15.718
2.9726	15.712
2.9709	15.709
2.9692	15.713
2.9675	15.724
2.9658	15.741
2.9641	15.761
2.9624	15.778
2.9607	15.791
2.9590	15.799
2.9573	15.802
2.9556	15.805
2.9539	15.807
2.9523	15.810
2.9506	15.813
2.9489	15.815
2.9472	15.815
2.9455	15.812
2.9439	15.807
2.9422	15.801
2.9405	15.797
2.9389	15.799
2.9372	15.807
2.9355	15.821
2.9339	15.839
2.9322	15.858
2.9306	15.875
2.9289	15.889
2.9272	15.900
2.9256	15.908
2.9239	15.919
2.9223	15.934
2.9207	15.957
2.9190	15.987
2.9174	16.023
2.9157	16.061
2.9141	16.097
2.9124	16.128
2.9108	16.151
2.9092	16.169
2.9075	16.184
2.9059	16.200
2.9043	16.219
2.9027	16.244
2.9010	16.272
2.8994	16.302
2.8978	16.332
2.8962	16.360
2.8946	16.386
2.8929	16.411
2.8913	16.435
2.8897	16.458
2.8881	16.479
2.8865	16.499
2.8849	16.517
2.8833	16.537
2.8817	16.560
2.8801	16.589
2.8785	16.622
2.8769	16.655
2.8753	16.686
2.8737	16.710
2.8721	16.727
2.8705	16.737
2.8689	16.746
2.8673	16.755
2.8658	16.768
2.8642	16.785
2.8626	16.804
2.8610	16.823
2.8594	16.841
2.8579	16.855
2.8563	16.865
2.8547	16.872
2.8531	16.874
2.8516	16.873
2.8500	16.867
2.8484	16.857
2.8469	16.842
2.8453	16.824
2.8437	16.805
2.8422	16.785
2.8406	16.765
2.8391	16.746
2.8375	16.726
2.8360	16.703
2.8344	16.676
2.8329	16.644
2.8313	16.607
2.8298	16.567
2.8282	16.526
2.8267	16.486
2.8252	16.449
2.8236	16.413
2.8221	16.377
2.8205	16.339
2.8190	16.296
2.8175	16.247
2.8159	16.192
2.8144	16.132
2.8129	16.067
2.8114	15.996
2.8098	15.919
2.8083	15.837
2.8068	15.750
2.8053	15.661
2.8038	15.574
2.8022	15.489
2.8007	15.404
2.7992	15.313
2.7977	15.206
2.7962	15.075
2.7947	14.913
2.7932	14.719
2.7917	14.496
2.7902	14.251
2.7887	13.991
2.7872	13.721
2.7857	13.445
2.7842	13.164
2.7827	12.877
2.7812	12.585
2.7797	12.291
2.7782	11.999
2.7767	11.714
2.7752	11.441
2.7738	11.181
2.7723	10.935
2.7708	10.702
2.7693	10.479
2.7678	10.267
2.7664	10.067
2.7649	9.8823
2.7634	9.7166
2.7619	9.5733
2.7605	9.4570
2.7590	9.3725
2.7575	9.3256
2.7561	9.3211
2.7546	9.3613
2.7531	9.4445
2.7517	9.5626
2.7502	9.7035
2.7488	9.8534
2.7473	10.001
2.7458	10.139
2.7444	10.269
2.7429	10.399
2.7415	10.537
2.7400	10.694
2.7386	10.879
2.7371	11.095
2.7357	11.345
2.7343	11.630
2.7328	11.947
2.7314	12.297
2.7299	12.681
2.7285	13.105
2.7271	13.576
2.7256	14.108
2.7242	14.712
2.7228	15.396
2.7213	16.153
2.7199	16.967
2.7185	17.807
2.7171	18.640
2.7156	19.436
2.7142	20.182
2.7128	20.875
2.7114	21.525
2.7100	22.146
2.7085	22.745
2.7071	23.322
2.7057	23.869
2.7043	24.374
2.7029	24.827
2.7015	25.223
2.7001	25.564
2.6987	25.860
2.6973	26.127
2.6959	26.382
2.6945	26.638
2.6931	26.903
2.6917	27.173
2.6903	27.437
2.6889	27.678
2.6875	27.884
2.6861	28.045
2.6847	28.162
2.6833	28.240
2.6819	28.291
2.6805	28.329
2.6791	28.361
2.6778	28.390
2.6764	28.412
2.6750	28.419
2.6736	28.403
2.6722	28.363
2.6709	28.313
2.6695	28.277
2.6681	28.278
2.6667	28.331
2.6654	28.438
2.6640	28.585
2.6626	28.744
2.6613	28.886
2.6599	28.993
2.6585	29.061
2.6572	29.095
2.6558	29.110
2.6545	29.122
2.6531	29.143
2.6517	29.175
2.6504	29.212
2.6490	29.247
2.6477	29.273
2.6463	29.288
2.6450	29.295
2.6436	29.303
2.6423	29.313
2.6409	29.329
2.6396	29.342
2.6382	29.340
2.6369	29.313
2.6356	29.255
2.6342	29.171
2.6329	29.079
2.6315	29.002
2.6302	28.961
2.6289	28.967
2.6275	29.010
2.6262	29.068
2.6249	29.116
2.6236	29.133
2.6222	29.113
2.6209	29.068
2.6196	29.025
2.6183	29.004
2.6169	29.018
2.6156	29.062
2.6143	29.117
2.6130	29.159
2.6117	29.164
2.6103	29.128
2.6090	29.064
2.6077	28.997
2.6064	28.956
2.6051	28.958
2.6038	29.000
2.6025	29.054
2.6012	29.084
2.5999	29.064
2.5986	28.990
2.5973	28.886
2.5960	28.792
2.5947	28.749
2.5934	28.772
2.5921	28.849
2.5908	28.944
2.5895	29.021
2.5882	29.057
2.5869	29.055
2.5856	29.035
2.5843	29.021
2.5830	29.034
2.5817	29.070
2.5805	29.116
2.5792	29.153
2.5779	29.168
2.5766	29.161
2.5753	29.139
2.5741	29.119
2.5728	29.111
2.5715	29.118
2.5702	29.132
2.5690	29.142
2.5677	29.134
2.5664	29.104
2.5651	29.058
2.5639	29.009
2.5626	28.974
2.5613	28.962
2.5601	28.975
2.5588	29.003
2.5575	29.031
2.5563	29.045
2.5550	29.036
2.5538	29.003
2.5525	28.954
2.5513	28.897
2.5500	28.842
2.5487	28.792
2.5475	28.750
2.5462	28.715
2.5450	28.685
2.5437	28.659
2.5425	28.635
2.5413	28.613
2.5400	28.592
2.5388	28.571
2.5375	28.552
2.5363	28.537
2.5350	28.528
2.5338	28.526
2.5326	28.534
2.5313	28.551
2.5301	28.576
2.5289	28.606
2.5276	28.639
2.5264	28.673
2.5252	28.705
2.5239	28.732
2.5227	28.753
2.5215	28.768
2.5202	28.777
2.5190	28.783
2.5178	28.790
2.5166	28.802
2.5154	28.818
2.5141	28.837
2.5129	28.857
2.5117	28.873
2.5105	28.882
2.5093	28.885
2.5081	28.882
2.5068	28.875
2.5056	28.867
2.5044	28.860
2.5032	28.853
2.5020	28.849
2.5008	28.846
2.4996	28.844
2.4984	28.843
2.4972	28.842
2.4960	28.839
2.4948	28.837
2.4936	28.836
2.4924	28.837
2.4912	28.840
2.4900	28.848
2.4888	28.860
2.4876	28.874
2.4864	28.888
2.4852	28.901
2.4840	28.909
2.4828	28.912
2.4816	28.910
2.4805	28.905
2.4793	28.899
2.4781	28.898
2.4769	28.903
2.4757	28.915
2.4745	28.931
2.4734	28.951
2.4722	28.970
2.4710	28.986
2.4698	28.995
2.4686	29.000
2.4675	28.999
2.4663	28.995
2.4651	28.988
2.4640	28.981
2.4628	28.976
2.4616	28.972
2.4604	28.972
2.4593	28.975
2.4581	28.980
2.4569	28.986
2.4558	28.990
2.4546	28.994
2.4535	28.998
2.4523	29.002
2.4511	29.006
2.4500	29.010
2.4488	29.011
2.4477	29.010
2.4465	29.006
2.4454	29.003
2.4442	29.001
2.4431	29.000
2.4419	29.002
2.4408	29.004
2.4396	29.008
2.4385	29.014
2.4373	29.021
2.4362	29.029
2.4350	29.038
2.4339	29.044
2.4327	29.047
2.4316	29.046
2.4305	29.042
2.4293	29.038
2.4282	29.038
2.4270	29.042
2.4259	29.050
2.4248	29.060
2.4236	29.071
2.4225	29.080
2.4214	29.085
2.4202	29.086
2.4191	29.083
2.4180	29.078
2.4169	29.073
2.4157	29.069
2.4146	29.071
2.4135	29.080
2.4124	29.096
2.4112	29.115
2.4101	29.134
2.4090	29.148
2.4079	29.153
2.4068	29.149
2.4056	29.136
2.4045	29.121
2.4034	29.108
2.4023	29.100
2.4012	29.098
2.4001	29.102
2.3990	29.109
2.3979	29.115
2.3967	29.118
2.3956	29.116
2.3945	29.110
2.3934	29.101
2.3923	29.092
2.3912	29.087
2.3901	29.086
2.3890	29.090
2.3879	29.098
2.3868	29.104
2.3857	29.106
2.3846	29.101
2.3835	29.090
2.3824	29.075
2.3813	29.060
2.3802	29.049
2.3791	29.044
2.3781	29.043
2.3770	29.044
2.3759	29.045
2.3748	29.044
2.3737	29.040
2.3726	29.033
2.3715	29.022
2.3704	29.009
2.3694	28.992
2.3683	28.972
2.3672	28.952
2.3661	28.933
2.3650	28.919
2.3640	28.910
2.3629	28.907
2.3618	28.904
2.3607	28.898
2.3597	28.886
2.3586	28.865
2.3575	28.837
2.3564	28.805
2.3554	28.773
2.3543	28.743
2.3532	28.719
2.3522	28.698
2.3511	28.679
2.3500	28.663
2.3490	28.646
2.3479	28.630
2.3468	28.614
2.3458	28.600
2.3447	28.588
2.3436	28.578
2.3426	28.571
2.3415	28.568
2.3405	28.569
2.3394	28.575
2.3384	28.586
2.3373	28.600
2.3363	28.613
2.3352	28.624
2.3342	28.632
2.3331	28.637
2.3321	28.640
2.3310	28.643
2.3300	28.646
2.3289	28.650
2.3279	28.656
2.3268	28.663
2.3258	28.673
2.3247	28.684
2.3237	28.698
2.3226	28.712
2.3216	28.727
2.3206	28.739
2.3195	28.747
2.3185	28.753
2.3175	28.755
2.3164	28.758
2.3154	28.761
2.3144	28.767
2.3133	28.774
2.3123	28.781
2.3113	28.789
2.3102	28.797
2.3092	28.804
2.3082	28.811
2.3071	28.818
2.3061	28.824
2.3051	28.830
2.3041	28.833
2.3030	28.833
2.3020	28.830
2.3010	28.823
2.3000	28.816
2.2990	28.810
2.2979	28.809
2.2969	28.814
2.2959	28.824
2.2949	28.836
2.2939	28.846
2.2929	28.851
2.2918	28.849
2.2908	28.844
2.2898	28.837
2.2888	28.832
2.2878	28.830
2.2868	28.831
2.2858	28.833
2.2848	28.834
2.2838	28.836
2.2828	28.839
2.2818	28.845
2.2808	28.854
2.2798	28.863
2.2787	28.872
2.2777	28.877
2.2767	28.877
2.2757	28.874
2.2747	28.871
2.2738	28.871
2.2728	28.875
2.2718	28.883
2.2708	28.892
2.2698	28.900
2.2688	28.904
2.2678	28.901
2.2668	28.893
2.2658	28.881
2.2648	28.868
2.2638	28.855
2.2628	28.847
2.2618	28.844
2.2609	28.845
2.2599	28.848
2.2589	28.851
2.2579	28.851
2.2569	28.848
2.2559	28.841
2.2550	28.831
2.2540	28.819
2.2530	28.808
2.2520	28.799
2.2510	28.794
2.2501	28.794
2.2491	28.797
2.2481	28.802
2.2471	28.806
2.2462	28.810
2.2452	28.813
2.2442	28.816
2.2433	28.820
2.2423	28.824
2.2413	28.828
2.2403	28.827
2.2394	28.820
2.2384	28.806
2.2374	28.787
2.2365	28.765
2.2355	28.743
2.2345	28.723
2.2336	28.706
2.2326	28.692
2.2317	28.680
2.2307	28.668
2.2297	28.657
2.2288	28.645
2.2278	28.632
2.2269	28.617
2.2259	28.602
2.2250	28.587
2.2240	28.573
2.2231	28.561
2.2221	28.552
2.2211	28.545
2.2202	28.539
2.2192	28.536
2.2183	28.535
2.2173	28.536
2.2164	28.538
2.2155	28.538
2.2145	28.533
2.2136	28.524
2.2126	28.510
2.2117	28.494
2.2107	28.481
2.2098	28.473
2.2088	28.471
2.2079	28.473
2.2070	28.478
2.2060	28.480
2.2051	28.479
2.2041	28.475
2.2032	28.469
2.2023	28.464
2.2013	28.465
2.2004	28.471
2.1995	28.482
2.1985	28.496
2.1976	28.508
2.1967	28.515
2.1957	28.515
2.1948	28.508
2.1939	28.498
2.1930	28.489
2.1920	28.486
2.1911	28.490
2.1902	28.498
2.1893	28.507
2.1883	28.512
2.1874	28.513
2.1865	28.510
2.1856	28.506
2.1846	28.505
2.1837	28.508
2.1828	28.512
2.1819	28.514
2.1810	28.510
2.1800	28.500
2.1791	28.488
2.1782	28.477
2.1773	28.472
2.1764	28.476
2.1755	28.488
2.1746	28.507
2.1736	28.528
2.1727	28.550
2.1718	28.568
2.1709	28.581
2.1700	28.586
2.1691	28.584
2.1682	28.576
2.1673	28.564
2.1664	28.555
2.1655	28.550
2.1646	28.552
2.1637	28.558
2.1628	28.566
2.1619	28.571
2.1610	28.572
2.1601	28.567
2.1592	28.560
2.1583	28.554
2.1574	28.551
2.1565	28.552
2.1556	28.556
2.1547	28.563
2.1538	28.568
2.1529	28.569
2.1520	28.564
2.1511	28.556
2.1502	28.547
2.1493	28.539
2.1484	28.537
2.1475	28.540
2.1466	28.545
2.1458	28.547
2.1449	28.545
2.1440	28.535
2.1431	28.520
2.1422	28.502
2.1413	28.488
2.1404	28.478
2.1396	28.471
2.1387	28.466
2.1378	28.461
2.1369	28.454
2.1360	28.447
2.1352	28.442
2.1343	28.442
2.1334	28.445
2.1325	28.451
2.1316	28.457
2.1308	28.458
2.1299	28.455
2.1290	28.449
2.1281	28.443
2.1273	28.441
2.1264	28.443
2.1255	28.447
2.1247	28.452
2.1238	28.454
2.1229	28.454
2.1220	28.451
2.1212	28.447
2.1203	28.442
2.1194	28.436
2.1186	28.429
2.1177	28.421
2.1168	28.416
2.1160	28.414
2.1151	28.417
2.1143	28.423
2.1134	28.429
2.1125	28.430
2.1117	28.426
2.1108	28.414
2.1100	28.399
2.1091	28.385
2.1082	28.377
2.1074	28.375
2.1065	28.378
2.1057	28.383
2.1048	28.384
2.1040	28.379
2.1031	28.367
2.1023	28.347
2.1014	28.324
2.1005	28.303
2.0997	28.289
2.0988	28.287
2.0980	28.296
2.0971	28.316
2.0963	28.341
2.0955	28.365
2.0946	28.382
2.0938	28.389
2.0929	28.385
2.0921	28.372
2.0912	28.354
2.0904	28.335
2.0895	28.318
2.0887	28.306
2.0879	28.302
2.0870	28.306
2.0862	28.316
2.0853	28.331
2.0845	28.339
2.0837	28.348
2.0828	28.348
2.0820	28.324
2.0812	28.344
2.0803	28.295
2.0795	28.283
2.0760	28.283
2.0720	28.410
2.0680	28.394
2.0640	28.317
2.0600	28.232
2.0560	28.384
2.0520	28.663
2.0480	28.560
2.0440	28.283
2.0400	28.064
2.0360	28.039
2.0320	27.947
2.0280	27.847
2.0240	27.749
2.0200	27.823
2.0160	27.914
2.0120	27.914
2.0080	27.699
2.0040	27.650
2.0000	27.626
1.9960	27.562
1.9920	27.595
1.9880	27.644
1.9840	27.619
1.9800	27.384
1.9760	27.251
1.9720	27.047
1.9680	26.842
1.9640	26.866
1.9600	26.615
1.9560	26.479
1.9520	26.688
1.9480	26.598
1.9440	26.574
1.9400	26.484
1.9360	26.235
1.9320	26.260
1.9280	26.217
1.9240	26.405
1.9200	26.175
1.9160	26.175
1.9120	26.381
1.9080	26.685
1.9040	26.729
1.9000	27.026
1.8960	27.118
1.8920	26.886
1.8880	26.885
1.8840	26.629
1.8800	26.202
1.8760	26.158
1.8720	26.092
1.8680	25.960
1.8640	26.256
1.8600	26.739
1.8560	26.933
1.8520	26.886
1.8480	26.808
1.8440	26.350
1.8400	26.226
1.8360	26.237
1.8320	26.453
1.8280	26.815
1.8240	26.621
1.8200	26.414
1.8160	26.278
1.8120	26.121
1.8080	26.166
1.8040	26.078
1.8000	25.989
1.7960	25.989
1.7920	25.967
1.7880	25.768
1.7840	25.834
1.7800	25.878
1.7760	25.901
1.7720	25.857
1.7680	25.768
1.7640	25.702
1.7600	25.680
1.7560	25.658
1.7520	25.746
1.7480	25.592
1.7440	25.614
1.7400	25.547
1.7360	25.504
1.7320	25.459
1.7280	25.525
1.7240	25.547
1.7200	25.502
1.7160	25.635
1.7120	25.591
1.7080	25.459
1.7040	25.503
1.7000	25.349
1.6960	25.327
1.6920	25.349
1.6880	25.349
1.6840	25.271
1.6800	25.261
1.6760	25.239
1.6720	25.218
1.6680	24.911
1.6640	24.876
1.6600	24.982
1.6560	24.876
1.6520	25.073
1.6480	24.833
1.6440	24.833
1.6400	24.940
1.6360	24.809
1.6320	24.788
1.6280	24.915
1.6240	24.851
1.6200	24.700
1.6160	24.658
1.6120	24.611
1.6080	24.611
1.6040	24.611
1.6000	24.570
1.5960	24.570
1.5920	24.540
1.5880	24.582
1.5840	24.472
1.5800	24.363
1.5760	24.363
1.5720	24.301
1.5680	24.301
1.5640	24.321
1.5600	24.104
1.5560	24.218
1.5520	24.124
1.5480	24.301
1.5440	24.124
1.5400	24.043
1.5360	23.894
1.5320	23.827
1.5280	23.807
1.5240	23.727
1.5200	23.827
1.5160	23.928
1.5120	23.847
1.5080	23.592
1.5040	23.405
1.5000	23.388
1.4960	23.311
1.4920	23.430
1.4880	23.831
1.4840	23.469
1.4800	23.507
1.4760	23.331
1.4720	23.223
1.4680	23.096
1.4640	23.019
1.4600	23.184
1.4560	23.087
1.4520	23.136
1.4480	23.155
1.4440	22.990
1.4400	22.875
1.4360	22.875
1.4320	22.903
1.4280	22.903
1.4240	22.903
1.4200	22.796
1.4160	22.553
1.4120	22.340
1.4080	22.234
1.4040	22.328
1.4000	22.136
1.3960	22.541
1.3920	22.657
1.3880	22.715
1.3840	22.516
1.3800	22.369
1.3760	22.458
1.3720	22.822
1.3680	22.822
1.3640	22.321
1.3600	21.989
1.3560	21.937
1.3520	22.519
1.3480	22.586
1.3440	22.598
1.3400	22.384
1.3360	22.093
1.3320	21.860
1.3280	21.600
1.3240	21.690
1.3200	21.710
1.3160	21.746
1.3120	21.593
1.3080	21.539
1.3040	21.504
1.3000	21.381
1.2960	21.381
1.2920	21.347
1.2880	21.207
1.2840	21.120
1.2800	21.014
1.2760	21.013
1.2720	20.835
1.2680	20.888
1.2640	21.100
1.2600	21.252
1.2560	21.207
1.2520	21.162
1.2480	21.396
1.2440	21.215
1.2400	21.251
1.2360	21.287
1.2320	21.151
1.2280	20.894
1.2240	20.673
1.2200	20.690
1.2160	20.822
1.2120	20.864
1.2080	20.788
1.2040	20.841
1.2000	20.444
1.1960	20.191
1.1920	20.108
1.1880	20.075
1.1840	20.025
1.1800	19.993
1.1760	19.872
1.1720	19.840
1.1680	19.584
1.1640	19.552
1.1600	19.617
1.1560	19.203
1.1520	19.234
1.1480	19.296
1.1440	19.225
1.1400	19.350
1.1360	19.573
1.1320	19.413
1.1280	19.273
1.1240	19.162
1.1200	19.167
1.1160	19.124
1.1120	19.057
1.1080	19.041
1.1040	18.937
1.1000	18.952
1.0960	18.968
1.0920	19.030
1.0880	18.800
1.0840	18.695
1.0800	18.650
1.0760	18.695
1.0720	18.650
1.0680	18.532
1.0640	18.457
1.0600	18.246
1.0560	18.158
1.0520	18.147
1.0480	17.999
1.0440	17.775
1.0400	17.863
1.0360	17.892
1.0320	18.029
1.0280	17.882
1.0240	17.896
1.0200	17.832
1.0160	17.772
1.0120	17.702
1.0080	17.617
1.0040	17.384
1.0000	17.282
0.99600	17.351
0.99200	17.482
0.98800	17.365
0.98400	17.235
0.98000	17.051
0.97600	16.943
0.97200	16.956
0.96800	16.882
0.96400	16.780
0.96000	16.705
0.95600	16.644
0.95200	16.695
0.94800	16.654
0.94400	16.545
0.94000	16.430
0.93600	16.430
0.93200	16.342
0.92800	16.302
0.92400	16.188
0.92000	16.214
0.91600	15.963
0.91200	16.001
0.90800	15.888
0.90400	15.864
0.90000	15.789
0.89600	15.763
0.89200	15.600
0.88800	15.600
0.88400	15.680
0.88000	15.655
0.87600	15.554
0.87200	15.390
0.86800	15.453
0.86400	15.325
0.86000	15.418
0.85600	15.316
0.85200	15.264
0.84800	15.147
0.84400	15.048
0.84000	14.903
0.83600	15.098
0.83200	14.916
0.82800	14.916
0.82400	14.959
0.82000	14.909
0.81600	14.872
0.81200	14.784
0.80800	14.657
0.80400	14.573
0.80000	14.538
0.79900	14.538
0.79800	14.538
0.79700	14.508
0.79600	14.411
0.79500	14.345
0.79400	14.332
0.79300	14.226
0.79200	14.213
0.79100	14.021
0.79000	14.060
0.78900	14.152
0.78800	14.278
0.78700	14.372
0.78600	14.095
0.78500	13.998
0.78400	13.998
0.78300	14.011
0.78200	13.985
0.78100	14.053
0.78000	14.092
0.77900	14.105
0.77800	14.011
0.77700	13.985
0.77600	13.863
0.77500	14.116
0.77400	13.943
0.77300	13.599
0.77200	13.898
0.77100	13.805
0.77000	13.805
0.76900	13.705
0.76800	13.571
0.76700	13.608
0.76600	13.699
0.76500	13.608
0.76400	13.621
0.76300	13.608
0.76200	13.462
0.76100	13.538
0.76000	13.403
0.75900	13.524
0.75800	13.537
0.75700	13.549
0.75600	13.524
0.75500	13.512
0.75400	13.234
0.75300	13.246
0.75200	13.222
0.75100	13.403
0.75000	13.222
0.74900	13.222
0.74800	13.089
0.74700	13.240
0.74600	13.089
0.74500	13.215
0.74400	13.143
0.74300	13.215
0.74200	13.178
0.74100	13.180
0.74000	13.290
0.73900	13.215
0.73800	13.119
0.73700	13.131
0.73600	13.022
0.73500	13.119
0.73400	12.847
0.73300	13.046
0.73200	12.913
0.73100	12.889
0.73000	12.865
0.72900	12.901
0.72800	12.895
0.72700	12.865
0.72600	12.499
0.72500	12.768
0.72400	12.768
0.72300	12.696
0.72200	12.600
0.72100	12.756
0.72000	12.756
0.71900	12.659
0.71800	12.415
0.71700	12.598
0.71600	12.375
0.71500	12.598
0.71400	12.486
0.71300	12.474
0.71200	12.522
0.71100	12.334
0.71000	12.334
0.70900	12.288
0.70800	12.157
0.70700	12.186
0.70600	12.315
0.70500	12.362
0.70400	12.362
0.70300	12.304
0.70200	12.339
0.70100	12.422
0.70000	12.313
0.69900	12.895
0.69800	12.446
0.69700	12.370
0.69600	12.260
0.69500	12.224
0.69400	12.200
0.69300	12.029
0.69200	12.029
0.69100	12.064
0.69000	11.953
0.68900	11.910
0.68800	12.076
0.68700	12.164
0.68600	12.064
0.68500	11.999
0.68400	11.976
0.68300	11.799
0.68200	11.833
0.68100	11.810
0.68000	11.776
0.67900	11.741
0.67800	11.641
0.67700	11.756
0.67600	11.632
0.67500	11.699
0.67400	11.710
0.67300	11.598
0.67200	11.641
0.67100	11.710
0.67000	11.699
0.66900	11.664
0.66800	11.757
0.66700	11.577
0.66600	11.554
0.66500	11.498
0.66400	11.375
0.66300	11.420
0.66200	11.668
0.66100	11.555
0.66000	11.420
0.65900	11.252
0.65800	11.286
0.65700	11.320
0.65600	11.298
0.65500	11.253
0.65400	11.196
0.65300	11.286
0.65200	11.217
0.65100	11.228
0.65000	10.993
0.64900	11.051
0.64800	11.051
0.64700	11.185
0.64600	11.095
0.64500	11.084
0.64400	11.051
0.64300	10.850
0.64200	10.871
0.64100	10.893
0.64000	10.792
0.63900	10.792
0.63800	10.689
0.63700	10.770
0.63600	10.759
0.63500	10.850
0.63400	10.759
0.63300	10.658
0.63200	10.770
0.63100	10.749
0.63000	10.712
0.62900	10.712
0.62800	10.610
0.62700	10.579
0.62600	10.477
0.62500	10.477
0.62400	10.488
0.62300	10.631
0.62200	10.530
0.62100	10.519
0.62000	10.327
0.61900	10.530
0.61800	10.337
0.61700	10.316
0.61600	10.306
0.61500	10.285
0.61400	10.488
0.61300	10.265
0.61200	10.275
0.61100	10.174
0.61000	10.174
0.60900	10.073
0.60800	10.073
0.60700	10.083
0.60600	10.103
0.60500	10.113
0.60400	10.113
0.60300	10.030
0.60200	10.072
0.60100	10.113
0.60000	10.082
0.59900	9.8678
0.59800	9.9076
0.59700	9.9277
0.59600	9.9680
0.59500	9.8949
0.59400	9.7715
0.59300	9.9882
0.59200	9.8648
0.59100	9.9680
0.59000	9.8349
0.58900	9.7715
0.58800	9.7815
0.58700	9.7616
0.58600	9.7616
0.58500	9.6291
0.58400	9.6584
0.58300	9.7914
0.58200	9.6291
0.58100	9.6781
0.58000	9.6584
0.57900	9.6781
0.57800	9.6584
0.57700	9.6584
0.57600	9.6584
0.57500	9.5553
0.57400	9.5233
0.57300	9.5518
0.57200	9.4758
0.57100	9.3933
0.57000	9.4120
0.56900	9.4026
0.56800	9.3933
0.56700	9.1904
0.56600	9.1996
0.56500	9.1996
0.56400	9.4026
0.56300	9.1904
0.56200	9.1904
0.56100	9.1072
0.56000	9.2365
0.55900	8.8080
0.55800	9.3704
0.55700	9.2480
0.55600	9.1956
0.55500	9.1609
0.55400	9.1609
0.55300	9.1696
0.55200	9.2988
0.55100	9.1590
0.55000	9.3083
0.54900	9.2006
0.54800	9.2999
0.54700	9.2368
0.54600	9.1916
0.54500	8.9235
0.54400	8.8182
0.54300	9.1559
0.54200	8.9669
0.54100	9.0196
0.54000	8.9582
0.53900	8.8422
0.53800	8.8766
0.53700	8.8467
0.53600	8.9113
0.53500	8.8119
0.53400	8.8381
0.53300	8.8040
0.53200	8.8680
0.53100	8.7776
0.53000	8.8033
0.52900	8.7131
0.52800	8.8210
0.52700	8.6963
0.52600	8.6712
0.52500	8.7047
0.52400	8.8467
0.52300	8.6629
0.52200	8.6545
0.52100	8.5723
0.52000	8.5148
0.51900	8.5556
0.51800	8.2844
0.51700	8.4744
0.51600	8.6136
0.51500	8.5558
0.51400	8.4264
0.51300	8.3583
0.51200	8.6060
0.51100	8.6558
0.51000	8.4087
0.50900	8.5229
0.50800	8.3621
0.50700	8.0658
0.50600	8.0214
0.50500	8.0658
0.50400	8.2863
0.50300	8.4343
0.50200	8.3583
0.50100	8.0658
0.50000	8.0733
0.49900	7.9892
0.49800	7.8611
0.49700	7.9892
0.49600	7.9611
0.49500	7.9829
0.49400	8.0362
0.49300	7.8823
0.49200	7.9306
0.49100	7.9611
0.49000	8.1807
0.48900	7.9467
0.48800	7.9395
0.48700	7.8269
0.48600	7.7375
0.48500	7.6392
0.48400	7.8340
0.48300	7.7652
0.48200	7.8141
0.48100	7.7861
0.48000	7.7652
0.47900	7.6476
0.47800	7.4796
0.47700	7.4796
0.47600	7.5914
0.47500	7.5849
0.47400	7.5784
0.47300	7.4605
0.47200	7.4605
0.47100	7.4746
0.47000	7.4620
0.46900	7.3469
0.46800	7.2488
0.46700	7.1623
0.46600	7.2488
0.46500	7.3267
0.46400	7.3288
0.46300	7.4809
0.46200	7.2623
0.46100	7.4651
0.46000	7.3564
0.45900	6.8899
0.45800	7.2331
0.45700	6.8468
0.45600	6.9808
0.45500	6.9679
0.45400	7.0775
0.45300	7.0392
0.45200	6.9468
0.45100	6.8711
0.45000	6.8944
0.44900	6.6842
0.44800	6.6842
0.44700	6.8972
0.44600	6.7940
0.44500	6.8717
0.44400	6.5604
0.44300	6.6816
0.44200	6.7105
0.44100	6.6143
0.44000	6.5285
0.43900	6.4986
0.43800	6.5244
0.43700	6.4416
0.43600	6.4986
0.43500	6.4952
0.43400	6.5036
0.43300	6.5119
0.43200	6.3965
0.43100	6.7106
0.43000	6.6118
0.42900	6.6370
0.42800	6.1016
0.42700	6.5162
0.42600	6.5082
0.42500	6.2821
0.42400	6.1849
0.42300	6.1016
0.42200	6.2927
0.42100	5.9896
0.42000	6.4365
0.41900	6.3024
0.41800	6.1841
0.41700	6.1841
0.41600	6.1841
0.41500	6.1841
0.41400	6.1831
0.41300	5.8501
0.41200	6.1647
0.41100	5.9641
0.41000	5.9483
0.40900	5.9398
0.40800	5.9499
0.40700	5.8537
0.40600	6.1651
0.40500	6.0598
0.40400	5.7461
0.40300	6.0623
0.40200	6.1678
0.40100	6.0573
0.40000	6.0673
0.0000	
