Name: Shale (Calcareous)
Type:  Rocks
Class:  Sedimentary
Subclass: Shale 
Particle Size:  0 - 75 Micrometers
Sample No.:  shale.3
Owner:  JHU
Wavelength Range:  All
Origin:  Sample No. 383,  The Hunt and Salisbury Collection at the U.S. 
Geological Survey, Denver, Co.
Description: Sample consists of a brownish fine-grained to 
microcrystalline groundmass with recrystallized(?), foraminiferid 
tests. Tests are biserial, uniserial, planispiral/trochospiral and 
fusilinid types. The groundmass consists of brown clay, carbonate, 
and lesser amounts of fine quartz. Additionally, there are scattered 
flecks and small lenses of opaque material.
Measurement:  Directional (10 Degree) Hemispherical Reflectance
First Column:  X
Second Column:  Y  
X Units:  Wavelength (micrometers)
Y Units:  Reflectance (percent)
First X Value: 14.0112
Last X Value:  0.4
Number of X Values: 2844
Additional Information:  None

14.983	9.2370
14.940	9.4471
14.897	9.6031
14.854	9.6806
14.812	9.7073
14.770	9.7279
14.728	9.7720
14.686	9.8350
14.645	9.8792
14.603	9.8338
14.562	9.6443
14.521	9.3064
14.481	8.8789
14.441	8.4638
14.400	8.1718
14.361	8.0579
14.321	8.0773
14.281	8.0797
14.242	7.8684
14.203	7.2821
14.164	6.2761
14.126	4.9693
14.087	3.6221
14.049	2.5500
14.011	2.0189
13.973	2.1598
13.936	2.9353
13.899	4.1606
13.861	5.5825
13.824	6.9709
13.788	8.1794
13.751	9.1565
13.715	9.9259
13.679	10.541
13.643	11.048
13.607	11.466
13.571	11.792
13.536	12.021
13.500	12.159
13.465	12.222
13.430	12.231
13.396	12.207
13.361	12.170
13.327	12.130
13.293	12.093
13.259	12.060
13.225	12.028
13.191	11.982
13.158	11.901
13.124	11.759
13.091	11.524
13.058	11.168
13.026	10.675
12.993	10.046
12.960	9.3185
12.928	8.5625
12.896	7.8774
12.864	7.3645
12.832	7.0945
12.800	7.0806
12.769	7.2669
12.737	7.5438
12.706	7.7789
12.675	7.8594
12.644	7.7252
12.614	7.3863
12.583	6.9186
12.552	6.4442
12.522	6.1013
12.492	6.0092
12.462	6.2389
12.432	6.7950
12.402	7.6165
12.373	8.5938
12.343	9.6017
12.314	10.530
12.285	11.303
12.256	11.891
12.227	12.302
12.198	12.569
12.169	12.730
12.141	12.825
12.113	12.886
12.084	12.947
12.056	13.058
12.028	13.253
12.000	13.516
11.973	13.771
11.945	13.900
11.918	13.776
11.890	13.327
11.863	12.616
11.836	11.878
11.809	11.384
11.782	11.317
11.755	11.703
11.729	12.399
11.702	13.121
11.676	13.548
11.650	13.463
11.624	12.814
11.598	11.654
11.572	10.101
11.546	8.3328
11.520	6.5475
11.495	4.9125
11.469	3.5477
11.444	2.5370
11.419	1.9308
11.394	1.7437
11.369	1.9862
11.344	2.6805
11.319	3.8158
11.294	5.2964
11.270	6.9408
11.245	8.5190
11.221	9.8115
11.197	10.673
11.173	11.075
11.149	11.103
11.125	10.888
11.101	10.550
11.077	10.174
11.054	9.8122
11.030	9.4864
11.007	9.2079
10.983	8.9879
10.960	8.8377
10.937	8.7591
10.914	8.7413
10.891	8.7662
10.868	8.8140
10.846	8.8666
10.823	8.9088
10.800	8.9322
10.778	8.9339
10.755	8.9180
10.733	8.8917
10.711	8.8650
10.689	8.8470
10.667	8.8432
10.645	8.8515
10.623	8.8647
10.602	8.8725
10.580	8.8635
10.558	8.8283
10.537	8.7610
10.516	8.6601
10.494	8.5266
10.473	8.3620
10.452	8.1716
10.431	7.9622
10.410	7.7408
10.389	7.5125
10.368	7.2795
10.348	7.0408
10.327	6.7931
10.306	6.5340
10.286	6.2659
10.266	5.9952
10.245	5.7319
10.225	5.4847
10.205	5.2590
10.185	5.0553
10.165	4.8708
10.145	4.7013
10.125	4.5452
10.106	4.4022
10.086	4.2729
10.066	4.1578
10.047	4.0562
10.027	3.9652
10.008	3.8814
9.9887	3.8026
9.9695	3.7294
9.9504	3.6626
9.9313	3.6036
9.9123	3.5525
9.8934	3.5080
9.8746	3.4686
9.8558	3.4322
9.8371	3.3981
9.8185	3.3668
9.7999	3.3415
9.7814	3.3232
9.7630	3.3123
9.7447	3.3078
9.7264	3.3095
9.7082	3.3164
9.6900	3.3277
9.6719	3.3431
9.6539	3.3644
9.6360	3.3924
9.6181	3.4246
9.6003	3.4601
9.5825	3.4985
9.5649	3.5397
9.5472	3.5828
9.5297	3.6283
9.5122	3.6775
9.4948	3.7306
9.4774	3.7864
9.4601	3.8464
9.4429	3.9129
9.4257	3.9901
9.4086	4.0829
9.3916	4.1952
9.3746	4.3266
9.3577	4.4713
9.3408	4.6179
9.3240	4.7538
9.3073	4.8659
9.2906	4.9478
9.2740	5.0006
9.2574	5.0321
9.2409	5.0527
9.2245	5.0709
9.2081	5.0918
9.1918	5.1140
9.1755	5.1342
9.1593	5.1500
9.1431	5.1605
9.1270	5.1668
9.1110	5.1711
9.0950	5.1754
9.0791	5.1780
9.0632	5.1766
9.0474	5.1697
9.0316	5.1581
9.0159	5.1425
9.0003	5.1261
8.9847	5.1126
8.9691	5.1069
8.9536	5.1121
8.9382	5.1306
8.9228	5.1645
8.9075	5.2140
8.8922	5.2772
8.8770	5.3527
8.8618	5.4392
8.8467	5.5375
8.8316	5.6481
8.8166	5.7721
8.8016	5.9104
8.7867	6.0606
8.7718	6.2185
8.7570	6.3815
8.7422	6.5470
8.7275	6.7135
8.7129	6.8762
8.6982	7.0247
8.6837	7.1433
8.6692	7.2146
8.6547	7.2264
8.6403	7.1826
8.6259	7.1040
8.6116	7.0261
8.5973	6.9863
8.5830	7.0133
8.5688	7.1166
8.5547	7.2863
8.5406	7.4985
8.5266	7.7278
8.5126	7.9556
8.4986	8.1754
8.4847	8.3920
8.4708	8.6163
8.4570	8.8598
8.4432	9.1319
8.4295	9.4369
8.4158	9.7777
8.4022	10.154
8.3886	10.564
8.3750	11.004
8.3615	11.470
8.3481	11.957
8.3347	12.457
8.3213	12.967
8.3079	13.485
8.2946	14.009
8.2814	14.539
8.2682	15.072
8.2550	15.604
8.2419	16.127
8.2288	16.626
8.2158	17.085
8.2028	17.490
8.1898	17.831
8.1769	18.103
8.1640	18.309
8.1512	18.455
8.1384	18.549
8.1256	18.600
8.1129	18.614
8.1002	18.605
8.0876	18.594
8.0750	18.603
8.0624	18.654
8.0499	18.759
8.0374	18.915
8.0250	19.104
8.0126	19.297
8.0002	19.460
7.9879	19.567
7.9756	19.600
7.9634	19.555
7.9512	19.440
7.9390	19.278
7.9268	19.104
7.9147	18.947
7.9027	18.832
7.8906	18.768
7.8786	18.745
7.8667	18.737
7.8548	18.715
7.8429	18.659
7.8310	18.567
7.8192	18.452
7.8075	18.340
7.7957	18.250
7.7840	18.193
7.7723	18.161
7.7607	18.133
7.7491	18.083
7.7375	17.988
7.7260	17.836
7.7145	17.622
7.7031	17.349
7.6916	17.026
7.6802	16.663
7.6689	16.271
7.6575	15.866
7.6462	15.463
7.6350	15.078
7.6238	14.727
7.6126	14.419
7.6014	14.157
7.5903	13.942
7.5792	13.768
7.5681	13.627
7.5571	13.510
7.5461	13.404
7.5351	13.300
7.5242	13.188
7.5133	13.058
7.5024	12.906
7.4916	12.729
7.4807	12.527
7.4700	12.303
7.4592	12.062
7.4485	11.811
7.4378	11.553
7.4272	11.294
7.4165	11.032
7.4059	10.762
7.3954	10.476
7.3848	10.163
7.3743	9.8181
7.3639	9.4385
7.3534	9.0288
7.3430	8.5983
7.3326	8.1588
7.3222	7.7211
7.3119	7.2953
7.3016	6.8904
7.2914	6.5141
7.2811	6.1709
7.2709	5.8626
7.2607	5.5858
7.2506	5.3319
7.2404	5.0896
7.2303	4.8512
7.2203	4.6148
7.2102	4.3842
7.2002	4.1668
7.1902	3.9726
7.1803	3.8094
7.1703	3.6818
7.1604	3.5915
7.1506	3.5397
7.1407	3.5241
7.1309	3.5390
7.1211	3.5740
7.1113	3.6143
7.1016	3.6455
7.0919	3.6553
7.0822	3.6382
7.0725	3.5968
7.0629	3.5387
7.0533	3.4755
7.0437	3.4156
7.0341	3.3637
7.0246	3.3209
7.0151	3.2844
7.0056	3.2498
6.9962	3.2148
6.9867	3.1781
6.9773	3.1409
6.9679	3.1068
6.9586	3.0779
6.9493	3.0561
6.9400	3.0421
6.9307	3.0336
6.9214	3.0284
6.9122	3.0232
6.9030	3.0151
6.8938	3.0047
6.8847	2.9943
6.8755	2.9874
6.8664	2.9867
6.8573	2.9926
6.8483	3.0042
6.8393	3.0185
6.8302	3.0312
6.8213	3.0410
6.8123	3.0478
6.8034	3.0549
6.7944	3.0649
6.7855	3.0800
6.7767	3.1011
6.7678	3.1283
6.7590	3.1598
6.7502	3.1930
6.7414	3.2257
6.7327	3.2574
6.7239	3.2894
6.7152	3.3235
6.7065	3.3616
6.6979	3.4068
6.6892	3.4592
6.6806	3.5174
6.6720	3.5792
6.6634	3.6422
6.6549	3.7076
6.6464	3.7774
6.6378	3.8556
6.6294	3.9451
6.6209	4.0469
6.6124	4.1604
6.6040	4.2823
6.5956	4.4090
6.5872	4.5390
6.5789	4.6724
6.5705	4.8097
6.5622	4.9511
6.5539	5.0951
6.5456	5.2381
6.5374	5.3760
6.5292	5.5043
6.5209	5.6215
6.5128	5.7340
6.5046	5.8546
6.4964	6.0019
6.4883	6.1942
6.4802	6.4416
6.4721	6.7414
6.4640	7.0720
6.4560	7.3967
6.4480	7.6759
6.4399	7.8774
6.4320	7.9864
6.4240	8.0096
6.4160	7.9689
6.4081	7.8895
6.4002	7.7898
6.3923	7.6747
6.3844	7.5376
6.3766	7.3631
6.3687	7.1388
6.3609	6.8622
6.3531	6.5406
6.3454	6.1887
6.3376	5.8283
6.3299	5.4830
6.3221	5.1773
6.3144	4.9298
6.3068	4.7541
6.2991	4.6558
6.2914	4.6274
6.2838	4.6499
6.2762	4.6975
6.2686	4.7448
6.2611	4.7725
6.2535	4.7707
6.2460	4.7411
6.2385	4.6908
6.2310	4.6293
6.2235	4.5625
6.2160	4.4948
6.2086	4.4292
6.2011	4.3690
6.1937	4.3179
6.1863	4.2807
6.1790	4.2610
6.1716	4.2601
6.1643	4.2752
6.1570	4.3025
6.1496	4.3366
6.1424	4.3728
6.1351	4.4090
6.1278	4.4460
6.1206	4.4888
6.1134	4.5421
6.1062	4.6073
6.0990	4.6811
6.0918	4.7581
6.0847	4.8329
6.0776	4.9019
6.0704	4.9677
6.0633	5.0411
6.0563	5.1346
6.0492	5.2568
6.0421	5.4082
6.0351	5.5825
6.0281	5.7698
6.0211	5.9562
6.0141	6.1297
6.0071	6.2875
6.0002	6.4317
5.9932	6.5660
5.9863	6.6936
5.9794	6.8167
5.9725	6.9354
5.9657	7.0483
5.9588	7.1554
5.9520	7.2648
5.9451	7.3903
5.9383	7.5416
5.9315	7.7219
5.9247	7.9250
5.9180	8.1363
5.9112	8.3402
5.9045	8.5247
5.8978	8.6895
5.8911	8.8455
5.8844	9.0023
5.8777	9.1643
5.8711	9.3270
5.8644	9.4769
5.8578	9.6012
5.8512	9.6891
5.8446	9.7400
5.8380	9.7651
5.8314	9.7819
5.8249	9.8073
5.8184	9.8482
5.8118	9.9010
5.8053	9.9529
5.7988	9.9863
5.7923	9.9870
5.7859	9.9541
5.7794	9.9032
5.7730	9.8605
5.7666	9.8511
5.7602	9.8918
5.7538	9.9891
5.7474	10.138
5.7410	10.323
5.7347	10.527
5.7283	10.742
5.7220	10.962
5.7157	11.185
5.7094	11.409
5.7031	11.638
5.6969	11.878
5.6906	12.136
5.6844	12.418
5.6782	12.724
5.6719	13.046
5.6657	13.366
5.6596	13.653
5.6534	13.876
5.6472	13.997
5.6411	13.978
5.6349	13.778
5.6288	13.354
5.6227	12.669
5.6166	11.701
5.6106	10.460
5.6045	9.0023
5.5984	7.4232
5.5924	5.8510
5.5864	4.4202
5.5804	3.2496
5.5744	2.4326
5.5684	2.0404
5.5624	2.1268
5.5564	2.7220
5.5505	3.8220
5.5445	5.3693
5.5386	7.2451
5.5327	9.2803
5.5268	11.296
5.5209	13.148
5.5151	14.757
5.5092	16.117
5.5033	17.273
5.4975	18.292
5.4917	19.232
5.4859	20.133
5.4801	21.011
5.4743	21.874
5.4685	22.716
5.4628	23.529
5.4570	24.301
5.4513	25.017
5.4455	25.663
5.4398	26.229
5.4341	26.716
5.4284	27.132
5.4228	27.481
5.4171	27.764
5.4114	27.976
5.4058	28.112
5.4002	28.167
5.3945	28.142
5.3889	28.057
5.3833	27.935
5.3778	27.802
5.3722	27.686
5.3666	27.608
5.3611	27.590
5.3555	27.645
5.3500	27.778
5.3445	27.984
5.3390	28.253
5.3335	28.565
5.3280	28.900
5.3225	29.244
5.3171	29.589
5.3116	29.934
5.3062	30.284
5.3008	30.648
5.2954	31.036
5.2900	31.455
5.2846	31.911
5.2792	32.402
5.2738	32.926
5.2684	33.478
5.2631	34.054
5.2578	34.653
5.2524	35.270
5.2471	35.902
5.2418	36.536
5.2365	37.156
5.2312	37.744
5.2260	38.285
5.2207	38.769
5.2154	39.197
5.2102	39.569
5.2050	39.891
5.1998	40.167
5.1945	40.396
5.1893	40.583
5.1842	40.732
5.1790	40.851
5.1738	40.948
5.1686	41.032
5.1635	41.106
5.1584	41.176
5.1532	41.246
5.1481	41.327
5.1430	41.421
5.1379	41.509
5.1328	41.551
5.1277	41.489
5.1227	41.270
5.1176	40.886
5.1126	40.391
5.1075	39.912
5.1025	39.592
5.0975	39.531
5.0925	39.750
5.0875	40.182
5.0825	40.701
5.0775	41.173
5.0726	41.511
5.0676	41.706
5.0627	41.793
5.0577	41.826
5.0528	41.847
5.0479	41.877
5.0430	41.914
5.0380	41.945
5.0332	41.963
5.0283	41.972
5.0234	41.980
5.0185	42.000
5.0137	42.040
5.0088	42.108
5.0040	42.208
4.9992	42.341
4.9944	42.512
4.9896	42.726
4.9848	42.987
4.9800	43.292
4.9752	43.635
4.9704	44.001
4.9657	44.369
4.9609	44.717
4.9562	45.029
4.9514	45.294
4.9467	45.513
4.9420	45.696
4.9373	45.863
4.9326	46.037
4.9279	46.240
4.9232	46.486
4.9186	46.778
4.9139	47.113
4.9092	47.478
4.9046	47.858
4.9000	48.237
4.8953	48.602
4.8907	48.940
4.8861	49.243
4.8815	49.508
4.8769	49.735
4.8723	49.927
4.8678	50.093
4.8632	50.239
4.8586	50.371
4.8541	50.493
4.8495	50.606
4.8450	50.709
4.8405	50.804
4.8360	50.890
4.8315	50.968
4.8270	51.041
4.8225	51.107
4.8180	51.168
4.8135	51.220
4.8090	51.266
4.8046	51.307
4.8001	51.342
4.7957	51.373
4.7913	51.396
4.7868	51.407
4.7824	51.399
4.7780	51.365
4.7736	51.301
4.7692	51.203
4.7648	51.070
4.7605	50.903
4.7561	50.703
4.7517	50.471
4.7474	50.205
4.7431	49.898
4.7387	49.537
4.7344	49.099
4.7301	48.561
4.7258	47.897
4.7215	47.094
4.7172	46.155
4.7129	45.106
4.7086	43.993
4.7043	42.874
4.7000	41.808
4.6958	40.846
4.6915	40.026
4.6873	39.363
4.6831	38.860
4.6788	38.512
4.6746	38.311
4.6704	38.259
4.6662	38.362
4.6620	38.634
4.6578	39.087
4.6536	39.718
4.6495	40.506
4.6453	41.413
4.6411	42.383
4.6370	43.360
4.6328	44.292
4.6287	45.145
4.6246	45.899
4.6205	46.547
4.6163	47.092
4.6122	47.540
4.6081	47.901
4.6040	48.192
4.6000	48.426
4.5959	48.621
4.5918	48.788
4.5877	48.933
4.5837	49.060
4.5796	49.167
4.5756	49.257
4.5716	49.333
4.5675	49.399
4.5635	49.459
4.5595	49.513
4.5555	49.562
4.5515	49.604
4.5475	49.638
4.5435	49.665
4.5395	49.688
4.5356	49.710
4.5316	49.732
4.5276	49.757
4.5237	49.783
4.5197	49.810
4.5158	49.840
4.5119	49.874
4.5080	49.918
4.5040	49.981
4.5001	50.072
4.4962	50.197
4.4923	50.359
4.4884	50.555
4.4846	50.778
4.4807	51.017
4.4768	51.261
4.4730	51.501
4.4691	51.730
4.4652	51.947
4.4614	52.154
4.4576	52.355
4.4537	52.555
4.4499	52.761
4.4461	52.974
4.4423	53.194
4.4385	53.419
4.4347	53.641
4.4309	53.853
4.4271	54.048
4.4233	54.222
4.4196	54.375
4.4158	54.506
4.4120	54.622
4.4083	54.729
4.4045	54.831
4.4008	54.932
4.3971	55.035
4.3934	55.137
4.3896	55.235
4.3859	55.325
4.3822	55.399
4.3785	55.450
4.3748	55.472
4.3711	55.460
4.3674	55.412
4.3638	55.333
4.3601	55.231
4.3564	55.117
4.3528	55.004
4.3491	54.901
4.3455	54.815
4.3418	54.748
4.3382	54.699
4.3346	54.661
4.3310	54.630
4.3273	54.599
4.3237	54.564
4.3201	54.525
4.3165	54.487
4.3129	54.451
4.3094	54.418
4.3058	54.381
4.3022	54.325
4.2986	54.230
4.2951	54.076
4.2915	53.851
4.2880	53.557
4.2844	53.216
4.2809	52.863
4.2774	52.546
4.2738	52.315
4.2703	52.208
4.2668	52.243
4.2633	52.413
4.2598	52.685
4.2563	53.014
4.2528	53.351
4.2493	53.655
4.2458	53.905
4.2424	54.095
4.2389	54.231
4.2354	54.325
4.2320	54.390
4.2285	54.436
4.2251	54.470
4.2216	54.496
4.2182	54.515
4.2148	54.524
4.2113	54.520
4.2079	54.499
4.2045	54.459
4.2011	54.400
4.1977	54.322
4.1943	54.230
4.1909	54.129
4.1875	54.021
4.1841	53.909
4.1808	53.793
4.1774	53.673
4.1740	53.546
4.1707	53.409
4.1673	53.259
4.1640	53.098
4.1606	52.924
4.1573	52.737
4.1540	52.536
4.1506	52.319
4.1473	52.082
4.1440	51.825
4.1407	51.547
4.1374	51.250
4.1341	50.935
4.1308	50.605
4.1275	50.261
4.1242	49.906
4.1209	49.540
4.1177	49.163
4.1144	48.777
4.1111	48.380
4.1079	47.973
4.1046	47.555
4.1014	47.125
4.0981	46.680
4.0949	46.213
4.0917	45.714
4.0884	45.177
4.0852	44.593
4.0820	43.964
4.0788	43.293
4.0756	42.591
4.0724	41.864
4.0692	41.114
4.0660	40.334
4.0628	39.497
4.0596	38.566
4.0565	37.500
4.0533	36.259
4.0501	34.825
4.0470	33.206
4.0438	31.446
4.0406	29.612
4.0375	27.784
4.0344	26.038
4.0312	24.426
4.0281	22.965
4.0250	21.641
4.0218	20.408
4.0187	19.209
4.0156	17.990
4.0125	16.718
4.0094	15.387
4.0063	14.024
4.0032	12.677
4.0001	11.401
3.9970	10.248
3.9940	9.2541
3.9909	8.4432
3.9878	7.8223
3.9847	7.3856
3.9817	7.1158
3.9786	6.9884
3.9756	6.9766
3.9725	7.0576
3.9695	7.2186
3.9665	7.4588
3.9634	7.7898
3.9604	8.2355
3.9574	8.8216
3.9544	9.5671
3.9513	10.475
3.9483	11.521
3.9453	12.649
3.9423	13.776
3.9393	14.814
3.9363	15.694
3.9333	16.387
3.9304	16.902
3.9274	17.286
3.9244	17.595
3.9214	17.875
3.9185	18.146
3.9155	18.410
3.9126	18.656
3.9096	18.874
3.9067	19.060
3.9037	19.218
3.9008	19.358
3.8979	19.490
3.8949	19.619
3.8920	19.750
3.8891	19.883
3.8862	20.016
3.8833	20.144
3.8804	20.263
3.8775	20.372
3.8746	20.473
3.8717	20.572
3.8688	20.676
3.8659	20.790
3.8630	20.918
3.8601	21.058
3.8573	21.210
3.8544	21.375
3.8515	21.560
3.8487	21.781
3.8458	22.062
3.8430	22.431
3.8401	22.912
3.8373	23.521
3.8344	24.257
3.8316	25.106
3.8288	26.044
3.8259	27.045
3.8231	28.088
3.8203	29.165
3.8175	30.277
3.8147	31.441
3.8119	32.679
3.8091	34.014
3.8063	35.465
3.8035	37.033
3.8007	38.698
3.7979	40.415
3.7951	42.114
3.7924	43.724
3.7896	45.177
3.7868	46.432
3.7841	47.477
3.7813	48.328
3.7785	49.020
3.7758	49.593
3.7730	50.081
3.7703	50.506
3.7676	50.879
3.7648	51.206
3.7621	51.489
3.7594	51.731
3.7566	51.938
3.7539	52.120
3.7512	52.288
3.7485	52.449
3.7458	52.610
3.7431	52.776
3.7404	52.944
3.7377	53.111
3.7350	53.270
3.7323	53.414
3.7296	53.537
3.7269	53.637
3.7242	53.717
3.7216	53.781
3.7189	53.835
3.7162	53.882
3.7136	53.922
3.7109	53.954
3.7083	53.975
3.7056	53.986
3.7030	53.985
3.7003	53.976
3.6977	53.961
3.6950	53.944
3.6924	53.925
3.6898	53.906
3.6872	53.885
3.6845	53.861
3.6819	53.833
3.6793	53.798
3.6767	53.757
3.6741	53.708
3.6715	53.650
3.6689	53.584
3.6663	53.511
3.6637	53.431
3.6611	53.346
3.6585	53.257
3.6560	53.162
3.6534	53.061
3.6508	52.951
3.6482	52.835
3.6457	52.714
3.6431	52.588
3.6406	52.460
3.6380	52.330
3.6355	52.199
3.6329	52.065
3.6304	51.928
3.6278	51.786
3.6253	51.638
3.6227	51.484
3.6202	51.320
3.6177	51.146
3.6152	50.960
3.6127	50.760
3.6101	50.542
3.6076	50.305
3.6051	50.044
3.6026	49.760
3.6001	49.450
3.5976	49.112
3.5951	48.743
3.5926	48.336
3.5901	47.880
3.5876	47.365
3.5852	46.787
3.5827	46.158
3.5802	45.504
3.5777	44.865
3.5753	44.286
3.5728	43.800
3.5704	43.421
3.5679	43.133
3.5654	42.905
3.5630	42.692
3.5605	42.457
3.5581	42.172
3.5557	41.824
3.5532	41.407
3.5508	40.922
3.5484	40.367
3.5459	39.739
3.5435	39.029
3.5411	38.224
3.5387	37.306
3.5363	36.253
3.5338	35.048
3.5314	33.681
3.5290	32.164
3.5266	30.530
3.5242	28.841
3.5218	27.172
3.5195	25.602
3.5171	24.193
3.5147	22.980
3.5123	21.966
3.5099	21.126
3.5075	20.418
3.5052	19.797
3.5028	19.225
3.5004	18.679
3.4981	18.142
3.4957	17.610
3.4934	17.079
3.4910	16.550
3.4887	16.028
3.4863	15.525
3.4840	15.075
3.4816	14.730
3.4793	14.556
3.4770	14.620
3.4746	14.974
3.4723	15.627
3.4700	16.539
3.4677	17.620
3.4653	18.754
3.4630	19.827
3.4607	20.751
3.4584	21.481
3.4561	22.017
3.4538	22.389
3.4515	22.643
3.4492	22.820
3.4469	22.953
3.4446	23.061
3.4423	23.154
3.4400	23.232
3.4378	23.296
3.4355	23.343
3.4332	23.372
3.4309	23.383
3.4287	23.376
3.4264	23.357
3.4241	23.327
3.4219	23.291
3.4196	23.252
3.4174	23.211
3.4151	23.168
3.4129	23.121
3.4106	23.068
3.4084	23.007
3.4061	22.936
3.4039	22.856
3.4017	22.769
3.3994	22.676
3.3972	22.575
3.3950	22.466
3.3928	22.350
3.3906	22.226
3.3883	22.097
3.3861	21.969
3.3839	21.848
3.3817	21.740
3.3795	21.646
3.3773	21.566
3.3751	21.492
3.3729	21.409
3.3707	21.296
3.3685	21.131
3.3663	20.893
3.3641	20.569
3.3620	20.158
3.3598	19.679
3.3576	19.177
3.3554	18.728
3.3533	18.436
3.3511	18.428
3.3489	18.819
3.3468	19.688
3.3446	21.039
3.3425	22.792
3.3403	24.791
3.3382	26.846
3.3360	28.779
3.3339	30.461
3.3317	31.834
3.3296	32.907
3.3274	33.731
3.3253	34.368
3.3232	34.875
3.3210	35.295
3.3189	35.655
3.3168	35.975
3.3147	36.265
3.3126	36.532
3.3104	36.780
3.3083	37.013
3.3062	37.228
3.3041	37.428
3.3020	37.612
3.2999	37.780
3.2978	37.931
3.2957	38.065
3.2936	38.181
3.2915	38.278
3.2894	38.357
3.2874	38.421
3.2853	38.475
3.2832	38.523
3.2811	38.565
3.2790	38.604
3.2770	38.639
3.2749	38.669
3.2728	38.696
3.2708	38.721
3.2687	38.742
3.2666	38.761
3.2646	38.776
3.2625	38.786
3.2605	38.791
3.2584	38.792
3.2564	38.790
3.2543	38.784
3.2523	38.775
3.2503	38.762
3.2482	38.743
3.2462	38.719
3.2442	38.691
3.2421	38.660
3.2401	38.625
3.2381	38.590
3.2361	38.554
3.2340	38.515
3.2320	38.472
3.2300	38.422
3.2280	38.366
3.2260	38.300
3.2240	38.228
3.2220	38.152
3.2200	38.073
3.2180	37.994
3.2160	37.915
3.2140	37.837
3.2120	37.758
3.2100	37.678
3.2080	37.594
3.2060	37.505
3.2040	37.413
3.2021	37.317
3.2001	37.221
3.1981	37.125
3.1961	37.031
3.1942	36.938
3.1922	36.842
3.1902	36.741
3.1883	36.631
3.1863	36.513
3.1844	36.388
3.1824	36.260
3.1805	36.134
3.1785	36.011
3.1766	35.893
3.1746	35.776
3.1727	35.654
3.1707	35.521
3.1688	35.376
3.1669	35.217
3.1649	35.049
3.1630	34.874
3.1611	34.701
3.1591	34.533
3.1572	34.373
3.1553	34.226
3.1534	34.092
3.1515	33.971
3.1495	33.860
3.1476	33.757
3.1457	33.659
3.1438	33.561
3.1419	33.463
3.1400	33.367
3.1381	33.272
3.1362	33.181
3.1343	33.092
3.1324	33.003
3.1305	32.911
3.1286	32.811
3.1268	32.699
3.1249	32.574
3.1230	32.434
3.1211	32.283
3.1192	32.125
3.1174	31.968
3.1155	31.814
3.1136	31.670
3.1117	31.540
3.1099	31.424
3.1080	31.322
3.1061	31.233
3.1043	31.155
3.1024	31.084
3.1006	31.017
3.0987	30.953
3.0969	30.891
3.0950	30.831
3.0932	30.773
3.0913	30.719
3.0895	30.668
3.0876	30.620
3.0858	30.571
3.0840	30.521
3.0821	30.470
3.0803	30.417
3.0785	30.361
3.0766	30.306
3.0748	30.252
3.0730	30.198
3.0712	30.144
3.0694	30.088
3.0675	30.030
3.0657	29.969
3.0639	29.907
3.0621	29.844
3.0603	29.781
3.0585	29.718
3.0567	29.655
3.0549	29.592
3.0531	29.530
3.0513	29.470
3.0495	29.413
3.0477	29.360
3.0459	29.311
3.0441	29.265
3.0423	29.222
3.0406	29.179
3.0388	29.135
3.0370	29.090
3.0352	29.043
3.0334	28.992
3.0317	28.940
3.0299	28.886
3.0281	28.831
3.0264	28.776
3.0246	28.720
3.0228	28.667
3.0211	28.617
3.0193	28.573
3.0176	28.536
3.0158	28.504
3.0140	28.476
3.0123	28.447
3.0105	28.415
3.0088	28.383
3.0070	28.351
3.0053	28.323
3.0036	28.302
3.0018	28.287
3.0001	28.277
2.9984	28.268
2.9966	28.254
2.9949	28.235
2.9932	28.209
2.9914	28.180
2.9897	28.155
2.9880	28.138
2.9863	28.130
2.9845	28.128
2.9828	28.123
2.9811	28.112
2.9794	28.093
2.9777	28.070
2.9760	28.047
2.9743	28.029
2.9726	28.016
2.9709	28.005
2.9692	27.992
2.9675	27.975
2.9658	27.956
2.9641	27.937
2.9624	27.921
2.9607	27.908
2.9590	27.899
2.9573	27.892
2.9556	27.883
2.9539	27.872
2.9523	27.859
2.9506	27.844
2.9489	27.827
2.9472	27.813
2.9455	27.805
2.9439	27.806
2.9422	27.816
2.9405	27.831
2.9389	27.850
2.9372	27.866
2.9355	27.879
2.9339	27.889
2.9322	27.899
2.9306	27.913
2.9289	27.931
2.9272	27.954
2.9256	27.982
2.9239	28.013
2.9223	28.049
2.9207	28.086
2.9190	28.125
2.9174	28.164
2.9157	28.200
2.9141	28.233
2.9124	28.265
2.9108	28.299
2.9092	28.337
2.9075	28.378
2.9059	28.424
2.9043	28.472
2.9027	28.523
2.9010	28.576
2.8994	28.635
2.8978	28.700
2.8962	28.771
2.8946	28.843
2.8929	28.912
2.8913	28.974
2.8897	29.031
2.8881	29.082
2.8865	29.132
2.8849	29.185
2.8833	29.242
2.8817	29.299
2.8801	29.353
2.8785	29.402
2.8769	29.444
2.8753	29.482
2.8737	29.516
2.8721	29.552
2.8705	29.591
2.8689	29.634
2.8673	29.678
2.8658	29.722
2.8642	29.765
2.8626	29.804
2.8610	29.838
2.8594	29.867
2.8579	29.889
2.8563	29.905
2.8547	29.915
2.8531	29.918
2.8516	29.918
2.8500	29.916
2.8484	29.912
2.8469	29.906
2.8453	29.895
2.8437	29.879
2.8422	29.853
2.8406	29.815
2.8391	29.769
2.8375	29.720
2.8360	29.671
2.8344	29.623
2.8329	29.578
2.8313	29.536
2.8298	29.494
2.8282	29.447
2.8267	29.396
2.8252	29.339
2.8236	29.278
2.8221	29.209
2.8205	29.133
2.8190	29.050
2.8175	28.961
2.8159	28.865
2.8144	28.763
2.8129	28.658
2.8114	28.548
2.8098	28.432
2.8083	28.309
2.8068	28.184
2.8053	28.060
2.8038	27.943
2.8022	27.833
2.8007	27.723
2.7992	27.603
2.7977	27.457
2.7962	27.270
2.7947	27.036
2.7932	26.756
2.7917	26.438
2.7902	26.095
2.7887	25.743
2.7872	25.393
2.7857	25.052
2.7842	24.721
2.7827	24.396
2.7812	24.074
2.7797	23.752
2.7782	23.434
2.7767	23.125
2.7752	22.832
2.7738	22.562
2.7723	22.318
2.7708	22.099
2.7693	21.901
2.7678	21.722
2.7664	21.558
2.7649	21.413
2.7634	21.293
2.7619	21.206
2.7605	21.156
2.7590	21.154
2.7575	21.212
2.7561	21.337
2.7546	21.536
2.7531	21.807
2.7517	22.139
2.7502	22.510
2.7488	22.890
2.7473	23.259
2.7458	23.610
2.7444	23.946
2.7429	24.290
2.7415	24.673
2.7400	25.121
2.7386	25.653
2.7371	26.276
2.7357	26.984
2.7343	27.760
2.7328	28.581
2.7314	29.428
2.7299	30.284
2.7285	31.142
2.7271	32.014
2.7256	32.931
2.7242	33.928
2.7228	35.041
2.7213	36.283
2.7199	37.630
2.7185	39.023
2.7171	40.391
2.7156	41.667
2.7142	42.818
2.7128	43.854
2.7114	44.814
2.7100	45.733
2.7085	46.632
2.7071	47.512
2.7057	48.356
2.7043	49.145
2.7029	49.878
2.7015	50.573
2.7001	51.256
2.6987	51.953
2.6973	52.696
2.6959	53.514
2.6945	54.414
2.6931	55.383
2.6917	56.393
2.6903	57.401
2.6889	58.361
2.6875	59.229
2.6861	59.977
2.6847	60.599
2.6833	61.101
2.6819	61.502
2.6805	61.823
2.6791	62.098
2.6778	62.352
2.6764	62.582
2.6750	62.755
2.6736	62.853
2.6722	62.882
2.6709	62.864
2.6695	62.845
2.6681	62.899
2.6667	63.088
2.6654	63.412
2.6640	63.817
2.6626	64.244
2.6613	64.635
2.6599	64.931
2.6585	65.115
2.6572	65.214
2.6558	65.272
2.6545	65.326
2.6531	65.396
2.6517	65.489
2.6504	65.596
2.6490	65.693
2.6477	65.770
2.6463	65.827
2.6450	65.873
2.6436	65.927
2.6423	65.997
2.6409	66.078
2.6396	66.148
2.6382	66.183
2.6369	66.164
2.6356	66.070
2.6342	65.908
2.6329	65.726
2.6315	65.575
2.6302	65.496
2.6289	65.516
2.6275	65.625
2.6262	65.772
2.6249	65.880
2.6236	65.898
2.6222	65.836
2.6209	65.719
2.6196	65.605
2.6183	65.565
2.6169	65.631
2.6156	65.781
2.6143	65.951
2.6130	66.079
2.6117	66.119
2.6103	66.043
2.6090	65.872
2.6077	65.689
2.6064	65.578
2.6051	65.586
2.6038	65.701
2.6025	65.865
2.6012	65.981
2.5999	65.956
2.5986	65.758
2.5973	65.468
2.5960	65.214
2.5947	65.100
2.5934	65.162
2.5921	65.364
2.5908	65.606
2.5895	65.779
2.5882	65.815
2.5869	65.741
2.5856	65.636
2.5843	65.565
2.5830	65.562
2.5817	65.619
2.5805	65.698
2.5792	65.751
2.5779	65.742
2.5766	65.675
2.5753	65.590
2.5741	65.517
2.5728	65.476
2.5715	65.471
2.5702	65.482
2.5690	65.473
2.5677	65.402
2.5664	65.258
2.5651	65.062
2.5639	64.848
2.5626	64.657
2.5613	64.516
2.5601	64.419
2.5588	64.331
2.5575	64.203
2.5563	64.000
2.5550	63.712
2.5538	63.357
2.5525	62.966
2.5513	62.573
2.5500	62.195
2.5487	61.839
2.5475	61.496
2.5462	61.155
2.5450	60.818
2.5437	60.492
2.5425	60.188
2.5413	59.918
2.5400	59.694
2.5388	59.524
2.5375	59.412
2.5363	59.358
2.5350	59.365
2.5338	59.430
2.5326	59.545
2.5313	59.701
2.5301	59.890
2.5289	60.100
2.5276	60.324
2.5264	60.554
2.5252	60.785
2.5239	61.012
2.5227	61.228
2.5215	61.431
2.5202	61.617
2.5190	61.787
2.5178	61.941
2.5166	62.078
2.5154	62.200
2.5141	62.306
2.5129	62.397
2.5117	62.474
2.5105	62.539
2.5093	62.594
2.5081	62.643
2.5068	62.686
2.5056	62.727
2.5044	62.765
2.5032	62.804
2.5020	62.842
2.5008	62.882
2.4996	62.922
2.4984	62.963
2.4972	63.005
2.4960	63.048
2.4948	63.093
2.4936	63.142
2.4924	63.194
2.4912	63.252
2.4900	63.316
2.4888	63.385
2.4876	63.458
2.4864	63.535
2.4852	63.614
2.4840	63.696
2.4828	63.782
2.4816	63.873
2.4805	63.970
2.4793	64.072
2.4781	64.181
2.4769	64.296
2.4757	64.415
2.4745	64.537
2.4734	64.661
2.4722	64.786
2.4710	64.909
2.4698	65.029
2.4686	65.145
2.4675	65.255
2.4663	65.357
2.4651	65.454
2.4640	65.547
2.4628	65.637
2.4616	65.727
2.4604	65.816
2.4593	65.902
2.4581	65.980
2.4569	66.047
2.4558	66.105
2.4546	66.156
2.4535	66.206
2.4523	66.260
2.4511	66.320
2.4500	66.385
2.4488	66.448
2.4477	66.503
2.4465	66.547
2.4454	66.582
2.4442	66.613
2.4431	66.649
2.4419	66.698
2.4408	66.760
2.4396	66.832
2.4385	66.905
2.4373	66.971
2.4362	67.026
2.4350	67.071
2.4339	67.107
2.4327	67.141
2.4316	67.174
2.4305	67.211
2.4293	67.252
2.4282	67.296
2.4270	67.346
2.4259	67.402
2.4248	67.459
2.4236	67.517
2.4225	67.572
2.4214	67.619
2.4202	67.659
2.4191	67.692
2.4180	67.722
2.4169	67.752
2.4157	67.783
2.4146	67.815
2.4135	67.843
2.4124	67.869
2.4112	67.892
2.4101	67.914
2.4090	67.939
2.4079	67.965
2.4068	67.991
2.4056	68.011
2.4045	68.025
2.4034	68.030
2.4023	68.032
2.4012	68.033
2.4001	68.037
2.3990	68.046
2.3979	68.061
2.3967	68.081
2.3956	68.103
2.3945	68.125
2.3934	68.145
2.3923	68.159
2.3912	68.167
2.3901	68.169
2.3890	68.165
2.3879	68.156
2.3868	68.144
2.3857	68.127
2.3846	68.106
2.3835	68.080
2.3824	68.051
2.3813	68.023
2.3802	68.000
2.3791	67.982
2.3781	67.970
2.3770	67.960
2.3759	67.946
2.3748	67.923
2.3737	67.889
2.3726	67.845
2.3715	67.790
2.3704	67.727
2.3694	67.659
2.3683	67.587
2.3672	67.511
2.3661	67.427
2.3650	67.333
2.3640	67.226
2.3629	67.105
2.3618	66.973
2.3607	66.834
2.3597	66.693
2.3586	66.548
2.3575	66.397
2.3564	66.239
2.3554	66.074
2.3543	65.904
2.3532	65.734
2.3522	65.572
2.3511	65.423
2.3500	65.288
2.3490	65.165
2.3479	65.053
2.3468	64.951
2.3458	64.859
2.3447	64.779
2.3436	64.713
2.3426	64.664
2.3415	64.634
2.3405	64.624
2.3394	64.633
2.3384	64.659
2.3373	64.698
2.3363	64.748
2.3352	64.808
2.3342	64.876
2.3331	64.954
2.3321	65.042
2.3310	65.140
2.3300	65.246
2.3289	65.359
2.3279	65.474
2.3268	65.590
2.3258	65.704
2.3247	65.813
2.3237	65.916
2.3226	66.012
2.3216	66.100
2.3206	66.181
2.3195	66.259
2.3185	66.335
2.3175	66.410
2.3164	66.484
2.3154	66.554
2.3144	66.619
2.3133	66.674
2.3123	66.719
2.3113	66.757
2.3102	66.789
2.3092	66.820
2.3082	66.852
2.3071	66.887
2.3061	66.925
2.3051	66.964
2.3041	67.003
2.3030	67.043
2.3020	67.082
2.3010	67.121
2.3000	67.159
2.2990	67.195
2.2979	67.229
2.2969	67.261
2.2959	67.296
2.2949	67.335
2.2939	67.378
2.2929	67.424
2.2918	67.472
2.2908	67.520
2.2898	67.568
2.2888	67.616
2.2878	67.666
2.2868	67.716
2.2858	67.764
2.2848	67.810
2.2838	67.852
2.2828	67.893
2.2818	67.937
2.2808	67.983
2.2798	68.031
2.2787	68.080
2.2777	68.131
2.2767	68.180
2.2757	68.224
2.2747	68.263
2.2738	68.292
2.2728	68.310
2.2718	68.318
2.2708	68.324
2.2698	68.335
2.2688	68.356
2.2678	68.387
2.2668	68.427
2.2658	68.466
2.2648	68.498
2.2638	68.523
2.2628	68.541
2.2618	68.557
2.2609	68.570
2.2599	68.583
2.2589	68.593
2.2579	68.601
2.2569	68.605
2.2559	68.612
2.2550	68.623
2.2540	68.641
2.2530	68.663
2.2520	68.685
2.2510	68.703
2.2501	68.715
2.2491	68.721
2.2481	68.721
2.2471	68.719
2.2462	68.715
2.2452	68.711
2.2442	68.708
2.2433	68.706
2.2423	68.705
2.2413	68.703
2.2403	68.701
2.2394	68.699
2.2384	68.699
2.2374	68.705
2.2365	68.717
2.2355	68.730
2.2345	68.735
2.2336	68.727
2.2326	68.703
2.2317	68.666
2.2307	68.624
2.2297	68.589
2.2288	68.565
2.2278	68.552
2.2269	68.544
2.2259	68.537
2.2250	68.531
2.2240	68.522
2.2231	68.511
2.2221	68.497
2.2211	68.482
2.2202	68.466
2.2192	68.453
2.2183	68.447
2.2173	68.450
2.2164	68.460
2.2155	68.475
2.2145	68.490
2.2136	68.506
2.2126	68.521
2.2117	68.530
2.2107	68.531
2.2098	68.524
2.2088	68.508
2.2079	68.489
2.2070	68.476
2.2060	68.480
2.2051	68.501
2.2041	68.534
2.2032	68.569
2.2023	68.602
2.2013	68.627
2.2004	68.646
2.1995	68.665
2.1985	68.690
2.1976	68.719
2.1967	68.750
2.1957	68.783
2.1948	68.816
2.1939	68.849
2.1930	68.879
2.1920	68.907
2.1911	68.932
2.1902	68.954
2.1893	68.974
2.1883	68.997
2.1874	69.026
2.1865	69.060
2.1856	69.096
2.1846	69.133
2.1837	69.169
2.1828	69.202
2.1819	69.234
2.1810	69.264
2.1800	69.290
2.1791	69.307
2.1782	69.313
2.1773	69.313
2.1764	69.312
2.1755	69.317
2.1746	69.331
2.1736	69.351
2.1727	69.369
2.1718	69.382
2.1709	69.390
2.1700	69.396
2.1691	69.403
2.1682	69.416
2.1673	69.434
2.1664	69.452
2.1655	69.466
2.1646	69.478
2.1637	69.490
2.1628	69.500
2.1619	69.505
2.1610	69.503
2.1601	69.496
2.1592	69.482
2.1583	69.469
2.1574	69.464
2.1565	69.469
2.1556	69.479
2.1547	69.487
2.1538	69.488
2.1529	69.483
2.1520	69.475
2.1511	69.472
2.1502	69.478
2.1493	69.496
2.1484	69.524
2.1475	69.556
2.1466	69.586
2.1458	69.612
2.1449	69.633
2.1440	69.647
2.1431	69.652
2.1422	69.650
2.1413	69.642
2.1404	69.629
2.1396	69.614
2.1387	69.603
2.1378	69.595
2.1369	69.591
2.1360	69.589
2.1352	69.588
2.1343	69.588
2.1334	69.591
2.1325	69.599
2.1316	69.613
2.1308	69.627
2.1299	69.639
2.1290	69.644
2.1281	69.643
2.1273	69.638
2.1264	69.635
2.1255	69.639
2.1247	69.651
2.1238	69.665
2.1229	69.675
2.1220	69.677
2.1212	69.671
2.1203	69.661
2.1194	69.651
2.1186	69.648
2.1177	69.653
2.1168	69.660
2.1160	69.662
2.1151	69.652
2.1143	69.631
2.1134	69.602
2.1125	69.574
2.1117	69.556
2.1108	69.557
2.1100	69.576
2.1091	69.608
2.1082	69.645
2.1074	69.674
2.1065	69.686
2.1057	69.679
2.1048	69.659
2.1040	69.635
2.1031	69.619
2.1023	69.619
2.1014	69.633
2.1005	69.652
2.0997	69.666
2.0988	69.668
2.0980	69.657
2.0971	69.640
2.0963	69.627
2.0955	69.627
2.0946	69.640
2.0938	69.658
2.0929	69.676
2.0921	69.690
2.0912	69.701
2.0904	69.711
2.0895	69.724
2.0887	69.743
2.0879	69.761
2.0870	69.776
2.0862	69.786
2.0853	69.782
2.0845	69.796
2.0837	69.791
2.0828	69.770
2.0820	69.828
2.0812	69.685
2.0803	69.692
2.0795	69.767
2.0760	69.767
2.0720	70.352
2.0680	70.631
2.0640	70.352
2.0600	69.738
2.0560	70.476
2.0520	70.569
2.0480	69.674
2.0440	69.674
2.0400	69.279
2.0360	69.403
2.0320	69.495
2.0280	69.254
2.0240	68.924
2.0200	68.828
2.0160	68.828
2.0120	68.552
2.0080	68.348
2.0040	67.957
2.0000	67.717
1.9960	67.361
1.9920	67.064
1.9880	66.998
1.9840	67.122
1.9800	66.508
1.9760	66.712
1.9720	66.474
1.9680	66.327
1.9640	66.474
1.9600	66.214
1.9560	65.922
1.9520	66.158
1.9480	65.795
1.9440	65.558
1.9400	65.195
1.9360	64.798
1.9320	64.894
1.9280	64.956
1.9240	65.131
1.9200	65.337
1.9160	65.337
1.9120	65.259
1.9080	65.821
1.9040	66.076
1.9000	66.732
1.8960	67.377
1.8920	67.261
1.8880	66.755
1.8840	66.315
1.8800	65.926
1.8760	65.948
1.8720	65.825
1.8680	65.890
1.8640	66.893
1.8600	67.957
1.8560	68.566
1.8520	68.722
1.8480	68.077
1.8440	67.387
1.8400	67.095
1.8360	67.331
1.8320	67.614
1.8280	68.024
1.8240	67.706
1.8200	67.372
1.8160	67.211
1.8120	66.732
1.8080	66.931
1.8040	67.421
1.8000	66.843
1.7960	66.490
1.7920	66.346
1.7880	66.071
1.7840	66.148
1.7800	65.993
1.7760	66.048
1.7720	66.158
1.7680	66.335
1.7640	66.170
1.7600	66.115
1.7560	66.148
1.7520	66.060
1.7480	65.895
1.7440	66.038
1.7400	66.048
1.7360	65.850
1.7320	65.783
1.7280	65.682
1.7240	65.737
1.7200	66.113
1.7160	66.402
1.7120	66.202
1.7080	65.783
1.7040	65.893
1.7000	65.905
1.6960	65.850
1.6920	65.905
1.6880	65.817
1.6840	65.739
1.6800	65.728
1.6760	65.409
1.6720	65.355
1.6680	65.334
1.6640	65.365
1.6600	65.372
1.6560	65.189
1.6520	65.067
1.6480	64.993
1.6440	64.905
1.6400	65.175
1.6360	65.155
1.6320	64.837
1.6280	65.073
1.6240	64.822
1.6200	64.749
1.6160	64.466
1.6120	64.396
1.6080	64.573
1.6040	64.396
1.6000	64.290
1.5960	64.290
1.5920	64.576
1.5880	64.773
1.5840	64.542
1.5800	64.488
1.5760	64.399
1.5720	64.151
1.5680	64.327
1.5640	64.204
1.5600	63.713
1.5560	63.762
1.5520	64.030
1.5480	64.239
1.5440	64.030
1.5400	63.819
1.5360	63.661
1.5320	63.713
1.5280	63.573
1.5240	63.365
1.5200	63.450
1.5160	63.625
1.5120	62.888
1.5080	62.506
1.5040	61.728
1.5000	61.871
1.4960	62.127
1.4920	63.057
1.4880	63.639
1.4840	62.645
1.4800	62.267
1.4760	62.179
1.4720	62.127
1.4680	62.025
1.4640	61.947
1.4600	62.113
1.4560	62.160
1.4520	61.882
1.4480	61.933
1.4440	61.555
1.4400	61.290
1.4360	61.116
1.4320	61.292
1.4280	61.417
1.4240	61.593
1.4200	61.367
1.4160	61.030
1.4120	60.493
1.4080	59.920
1.4040	59.815
1.4000	60.045
1.3960	60.735
1.3920	61.489
1.3880	61.644
1.3840	61.502
1.3800	61.079
1.3760	60.990
1.3720	62.184
1.3680	62.274
1.3640	61.293
1.3600	60.105
1.3560	60.204
1.3520	61.612
1.3480	62.224
1.3440	62.284
1.3400	61.376
1.3360	60.651
1.3320	59.998
1.3280	59.738
1.3240	59.720
1.3200	59.925
1.3160	60.023
1.3120	59.870
1.3080	59.636
1.3040	59.539
1.3000	59.442
1.2960	59.181
1.2920	59.238
1.2880	59.159
1.2840	58.809
1.2800	58.651
1.2760	58.627
1.2720	58.603
1.2680	58.837
1.2640	59.089
1.2600	59.067
1.2560	59.296
1.2520	59.314
1.2480	59.373
1.2440	59.463
1.2400	59.924
1.2360	60.025
1.2320	59.772
1.2280	58.978
1.2240	58.662
1.2200	58.532
1.2160	58.758
1.2120	58.931
1.2080	59.138
1.2040	59.287
1.2000	58.475
1.1960	57.754
1.1920	57.518
1.1880	57.424
1.1840	57.283
1.1800	57.190
1.1760	57.097
1.1720	57.005
1.1680	56.806
1.1640	56.452
1.1600	56.430
1.1560	55.841
1.1520	55.931
1.1480	56.200
1.1440	56.397
1.1400	56.678
1.1360	57.268
1.1320	56.597
1.1280	56.637
1.1240	56.287
1.1200	56.655
1.1160	56.796
1.1120	56.329
1.1080	56.016
1.1040	55.793
1.1000	55.838
1.0960	55.617
1.0920	55.979
1.0880	55.716
1.0840	55.759
1.0800	55.711
1.0760	55.848
1.0720	55.711
1.0680	55.805
1.0640	55.488
1.0600	55.009
1.0560	54.744
1.0520	55.088
1.0480	55.177
1.0440	54.920
1.0400	54.744
1.0360	54.832
1.0320	55.090
1.0280	54.822
1.0240	54.867
1.0200	54.567
1.0160	54.745
1.0120	54.913
1.0080	54.557
1.0040	54.292
1.0000	53.984
0.99600	54.203
0.99200	54.602
0.98800	54.247
0.98400	54.115
0.98000	53.809
0.97600	53.939
0.97200	53.806
0.96800	53.850
0.96400	53.542
0.96000	53.585
0.95600	53.672
0.95200	53.575
0.94800	53.356
0.94400	53.308
0.94000	53.487
0.93600	53.487
0.93200	53.398
0.92800	53.268
0.92400	53.182
0.92000	53.268
0.91600	52.959
0.91200	52.908
0.90800	52.822
0.90400	52.860
0.90000	52.903
0.89600	52.465
0.89200	52.596
0.88800	52.596
0.88400	52.618
0.88000	52.833
0.87600	52.702
0.87200	52.567
0.86800	52.606
0.86400	52.779
0.86000	52.813
0.85600	52.591
0.85200	52.632
0.84800	52.422
0.84400	52.502
0.84000	52.509
0.83600	52.497
0.83200	52.552
0.82800	52.642
0.82400	52.591
0.82000	52.329
0.81600	52.555
0.81200	52.644
0.80800	52.305
0.80400	52.095
0.80000	52.231
0.79900	52.231
0.79800	52.231
0.79700	52.560
0.79600	52.327
0.79500	52.327
0.79400	51.992
0.79300	51.661
0.79200	51.808
0.79100	52.096
0.79000	52.234
0.78900	52.327
0.78800	51.941
0.78700	51.937
0.78600	51.887
0.78500	51.887
0.78400	51.983
0.78300	51.933
0.78200	51.551
0.78100	51.842
0.78000	51.980
0.77900	52.123
0.77800	51.933
0.77700	51.648
0.77600	51.364
0.77500	51.551
0.77400	51.411
0.77300	51.551
0.77200	51.593
0.77100	51.307
0.77000	51.307
0.76900	51.593
0.76800	51.456
0.76700	51.400
0.76600	51.587
0.76500	51.207
0.76400	51.059
0.76300	50.917
0.76200	50.737
0.76100	50.973
0.76000	50.872
0.75900	50.962
0.75800	50.717
0.75700	50.762
0.75600	50.865
0.75500	50.820
0.75400	50.865
0.75300	50.910
0.75200	50.627
0.75100	50.485
0.75000	50.434
0.74900	50.434
0.74800	50.300
0.74700	50.614
0.74600	50.561
0.74500	50.717
0.74400	50.420
0.74300	50.330
0.74200	50.389
0.74100	50.555
0.74000	50.795
0.73900	50.330
0.73800	50.330
0.73700	50.375
0.73600	50.137
0.73500	50.234
0.73400	50.091
0.73300	50.033
0.73200	50.062
0.73100	49.973
0.73000	50.077
0.72900	50.212
0.72800	49.978
0.72700	49.883
0.72600	49.389
0.72500	49.883
0.72400	50.077
0.72300	49.811
0.72200	49.618
0.72100	49.645
0.72000	49.549
0.71900	49.355
0.71800	49.531
0.71700	49.681
0.71600	49.167
0.71500	49.390
0.71400	49.798
0.71300	49.558
0.71200	49.476
0.71100	49.030
0.71000	49.127
0.70900	48.761
0.70800	48.728
0.70700	49.302
0.70600	49.431
0.70500	49.609
0.70400	49.609
0.70300	49.290
0.70200	48.936
0.70100	48.986
0.70000	48.943
0.69900	48.957
0.69800	48.989
0.69700	49.832
0.69600	49.516
0.69500	49.479
0.69400	49.288
0.69300	49.016
0.69200	49.016
0.69100	49.152
0.69000	48.907
0.68900	49.032
0.68800	48.997
0.68700	49.152
0.68600	49.052
0.68500	49.187
0.68400	49.097
0.68300	49.087
0.68200	48.922
0.68100	48.731
0.68000	48.696
0.67900	48.462
0.67800	48.263
0.67700	48.508
0.67600	48.419
0.67500	48.385
0.67400	48.631
0.67300	48.485
0.67200	48.263
0.67100	48.731
0.67000	48.385
0.66900	48.452
0.66800	48.610
0.66700	48.396
0.66600	48.307
0.66500	48.285
0.66400	48.096
0.66300	48.173
0.66200	48.554
0.66100	48.408
0.66000	48.173
0.65900	47.904
0.65800	48.139
0.65700	48.071
0.65600	47.982
0.65500	47.804
0.65400	47.881
0.65300	47.836
0.65200	47.867
0.65100	48.115
0.65000	47.980
0.64900	47.804
0.64800	47.703
0.64700	47.634
0.64600	47.881
0.64500	47.836
0.64400	47.501
0.64300	47.400
0.64200	47.488
0.64100	47.577
0.64000	47.678
0.63900	47.577
0.63800	47.272
0.63700	47.286
0.63600	47.243
0.63500	47.300
0.63400	47.343
0.63300	47.243
0.63200	47.084
0.63100	46.896
0.63000	47.260
0.62900	47.057
0.62800	46.956
0.62700	46.825
0.62600	46.825
0.62500	46.926
0.62400	46.565
0.62300	46.942
0.62200	46.942
0.62100	46.695
0.62000	46.942
0.61900	46.739
0.61800	46.579
0.61700	46.492
0.61600	46.550
0.61500	46.464
0.61400	46.464
0.61300	46.377
0.61200	46.016
0.61100	45.915
0.61000	45.915
0.60900	45.713
0.60800	45.713
0.60700	45.755
0.60600	45.840
0.60500	45.781
0.60400	45.578
0.60300	45.458
0.60200	45.630
0.60100	45.699
0.60000	45.366
0.59900	45.324
0.59800	45.494
0.59700	45.375
0.59600	45.649
0.59500	45.676
0.59400	45.486
0.59300	45.529
0.59200	45.340
0.59100	45.340
0.59000	45.006
0.58900	45.176
0.58800	45.426
0.58700	45.340
0.58600	45.030
0.58500	44.903
0.58400	45.030
0.58300	45.159
0.58200	45.006
0.58100	45.012
0.58000	44.927
0.57900	44.909
0.57800	44.927
0.57700	44.927
0.57600	45.030
0.57500	45.134
0.57400	44.900
0.57300	44.975
0.57200	44.743
0.57100	44.623
0.57000	44.503
0.56900	44.259
0.56800	44.116
0.56700	43.913
0.56600	43.954
0.56500	43.954
0.56400	43.954
0.56300	43.913
0.56200	43.710
0.56100	43.792
0.56000	43.710
0.55900	41.864
0.55800	43.516
0.55700	43.206
0.55600	43.171
0.55500	43.212
0.55400	42.922
0.55300	42.863
0.55200	42.721
0.55100	42.756
0.55000	42.984
0.54900	43.274
0.54800	43.274
0.54700	42.804
0.54600	42.937
0.54500	42.727
0.54400	42.395
0.54300	42.782
0.54200	42.623
0.54100	42.557
0.54000	42.585
0.53900	42.409
0.53800	42.266
0.53700	42.474
0.53600	42.419
0.53500	42.419
0.53400	42.335
0.53300	42.182
0.53200	42.129
0.53100	42.167
0.53000	41.884
0.52900	41.723
0.52800	41.761
0.52700	41.549
0.52600	41.338
0.52500	41.686
0.52400	41.875
0.52300	41.400
0.52200	40.968
0.52100	41.140
0.52000	41.227
0.51900	41.613
0.51800	41.079
0.51700	40.845
0.51600	41.028
0.51500	40.968
0.51400	40.627
0.51300	40.869
0.51200	40.793
0.51100	40.772
0.51000	40.893
0.50900	41.165
0.50800	40.478
0.50700	40.379
0.50600	40.165
0.50500	40.182
0.50400	40.190
0.50300	40.170
0.50200	40.277
0.50100	39.984
0.50000	40.020
0.49900	39.992
0.49800	39.653
0.49700	39.695
0.49600	39.358
0.49500	39.463
0.49400	39.548
0.49300	39.078
0.49200	39.317
0.49100	39.260
0.49000	39.364
0.48900	39.191
0.48800	39.156
0.48700	38.793
0.48600	38.632
0.48500	38.436
0.48400	38.532
0.48300	38.669
0.48200	38.908
0.48100	38.672
0.48000	38.373
0.47900	38.077
0.47800	38.016
0.47700	38.016
0.47600	38.082
0.47500	38.049
0.47400	37.917
0.47300	37.818
0.47200	37.720
0.47100	37.688
0.47000	37.820
0.46900	37.331
0.46800	37.331
0.46700	37.395
0.46600	37.331
0.46500	37.038
0.46400	36.844
0.46300	37.227
0.46200	36.610
0.46100	37.035
0.46000	36.777
0.45900	36.306
0.45800	36.529
0.45700	36.247
0.45600	36.437
0.45500	36.270
0.45400	36.406
0.45300	36.184
0.45200	35.941
0.45100	35.995
0.45000	36.047
0.44900	35.913
0.44800	35.708
0.44700	35.844
0.44600	35.664
0.44500	35.408
0.44400	35.097
0.44300	35.090
0.44200	35.479
0.44100	35.047
0.44000	35.481
0.43900	34.983
0.43800	35.061
0.43700	35.109
0.43600	34.777
0.43500	34.567
0.43400	34.626
0.43300	34.582
0.43200	34.416
0.43100	34.212
0.43000	34.163
0.42900	34.443
0.42800	34.012
0.42700	34.246
0.42600	33.877
0.42500	33.680
0.42400	33.554
0.42300	33.595
0.42200	33.350
0.42100	33.353
0.42000	33.556
0.41900	33.353
0.41800	33.058
0.41700	33.162
0.41600	33.058
0.41500	32.954
0.41400	32.977
0.41300	32.627
0.41200	32.918
0.41100	32.838
0.41000	32.677
0.40900	32.312
0.40800	32.417
0.40700	32.392
0.40600	32.184
0.40500	31.998
0.40400	32.020
0.40300	31.920
0.40200	32.002
0.40100	31.557
0.40000	31.868
0.0000	
