Name: Siltstone
Type:  Rocks
Class:  Sedimentary
Subclass: Siltstone 
Particle Size:  0 - 75 Micrometers
Sample No.:  siltstone.1
Owner:  JHU
Wavelength Range:  All
Origin:  Sample No. 455,  The Hunt and Salisbury Collection at the U.S. 
Geological Survey, Denver, Co.
Description: This is a very fine-grained, lineated/laminated sample 
consisting of brownish clay and very fine quartz particles (about 
equal amounts), along with tiny slivers of another phase (feldspar?). 
There are abundant small flecks and discontinuous lenses of 
carbonaceous and opaque material present as well.

Measurement:  Directional (10 Degree) Hemispherical Reflectance
First Column:  X
Second Column:  Y  
X Units:  Wavelength (micrometers)
Y Units:  Reflectance (percent)
First X Value: 14.0112
Last X Value:  0.4
Number of X Values: 2844
Additional Information:  None

14.983	1.9814
14.940	2.0269
14.897	2.1046
14.854	2.1998
14.812	2.2895
14.770	2.3530
14.728	2.3814
14.686	2.3812
14.645	2.3727
14.603	2.3788
14.562	2.4139
14.521	2.4769
14.481	2.5519
14.441	2.6168
14.400	2.6514
14.361	2.6478
14.321	2.6123
14.281	2.5607
14.242	2.5095
14.203	2.4705
14.164	2.4432
14.126	2.4188
14.087	2.3831
14.049	2.3248
14.011	2.2386
13.973	2.1278
13.936	2.0018
13.899	1.8744
13.861	1.7591
13.824	1.6662
13.788	1.6028
13.751	1.5703
13.715	1.5658
13.679	1.5822
13.643	1.6103
13.607	1.6407
13.571	1.6653
13.536	1.6804
13.500	1.6857
13.465	1.6845
13.430	1.6816
13.396	1.6816
13.361	1.6868
13.327	1.6958
13.293	1.7058
13.259	1.7112
13.225	1.7093
13.191	1.6989
13.158	1.6826
13.124	1.6655
13.091	1.6534
13.058	1.6518
13.026	1.6615
12.993	1.6812
12.960	1.7060
12.928	1.7306
12.896	1.7489
12.864	1.7574
12.832	1.7548
12.800	1.7425
12.769	1.7247
12.737	1.7084
12.706	1.7025
12.675	1.7169
12.644	1.7617
12.614	1.8455
12.583	1.9746
12.552	2.1522
12.522	2.3783
12.492	2.6502
12.462	2.9628
12.432	3.3081
12.402	3.6766
12.373	4.0569
12.343	4.4377
12.314	4.8078
12.285	5.1578
12.256	5.4816
12.227	5.7750
12.198	6.0379
12.169	6.2714
12.141	6.4779
12.113	6.6604
12.084	6.8212
12.056	6.9619
12.028	7.0846
12.000	7.1907
11.973	7.2816
11.945	7.3588
11.918	7.4223
11.890	7.4713
11.863	7.5037
11.836	7.5172
11.809	7.5106
11.782	7.4831
11.755	7.4365
11.729	7.3735
11.702	7.2987
11.676	7.2172
11.650	7.1343
11.624	7.0547
11.598	6.9818
11.572	6.9172
11.546	6.8608
11.520	6.8115
11.495	6.7672
11.469	6.7277
11.444	6.6924
11.419	6.6626
11.394	6.6389
11.369	6.6209
11.344	6.6060
11.319	6.5899
11.294	6.5671
11.270	6.5323
11.245	6.4812
11.221	6.4118
11.197	6.3242
11.173	6.2204
11.149	6.1030
11.125	5.9758
11.101	5.8430
11.077	5.7080
11.054	5.5744
11.030	5.4453
11.007	5.3224
10.983	5.2062
10.960	5.0963
10.937	4.9914
10.914	4.8888
10.891	4.7865
10.868	4.6823
10.846	4.5743
10.823	4.4618
10.800	4.3453
10.778	4.2260
10.755	4.1064
10.733	3.9892
10.711	3.8764
10.689	3.7699
10.667	3.6706
10.645	3.5780
10.623	3.4911
10.602	3.4078
10.580	3.3258
10.558	3.2432
10.537	3.1586
10.516	3.0722
10.494	2.9848
10.473	2.8991
10.452	2.8179
10.431	2.7437
10.410	2.6786
10.389	2.6227
10.368	2.5758
10.348	2.5372
10.327	2.5050
10.306	2.4773
10.286	2.4529
10.266	2.4307
10.245	2.4101
10.225	2.3916
10.205	2.3764
10.185	2.3653
10.165	2.3582
10.145	2.3544
10.125	2.3523
10.106	2.3499
10.086	2.3459
10.066	2.3402
10.047	2.3345
10.027	2.3298
10.008	2.3274
9.9887	2.3272
9.9695	2.3274
9.9504	2.3272
9.9313	2.3243
9.9123	2.3187
9.8934	2.3101
9.8746	2.2985
9.8558	2.2846
9.8371	2.2689
9.8185	2.2533
9.7999	2.2403
9.7814	2.2339
9.7630	2.2367
9.7447	2.2505
9.7264	2.2739
9.7082	2.3028
9.6900	2.3312
9.6719	2.3523
9.6539	2.3615
9.6360	2.3566
9.6181	2.3383
9.6003	2.3094
9.5825	2.2739
9.5649	2.2358
9.5472	2.1972
9.5297	2.1595
9.5122	2.1228
9.4948	2.0868
9.4774	2.0515
9.4601	2.0179
9.4429	1.9874
9.4257	1.9615
9.4086	1.9419
9.3916	1.9286
9.3746	1.9208
9.3577	1.9173
9.3408	1.9156
9.3240	1.9144
9.3073	1.9130
9.2906	1.9109
9.2740	1.9080
9.2574	1.9049
9.2409	1.9007
9.2245	1.8950
9.2081	1.8867
9.1918	1.8753
9.1755	1.8609
9.1593	1.8441
9.1431	1.8263
9.1270	1.8093
9.1110	1.7934
9.0950	1.7787
9.0791	1.7648
9.0632	1.7515
9.0474	1.7394
9.0316	1.7297
9.0159	1.7240
9.0003	1.7231
8.9847	1.7264
8.9691	1.7316
8.9536	1.7361
8.9382	1.7375
8.9228	1.7356
8.9075	1.7311
8.8922	1.7264
8.8770	1.7240
8.8618	1.7257
8.8467	1.7323
8.8316	1.7437
8.8166	1.7598
8.8016	1.7799
8.7867	1.8043
8.7718	1.8320
8.7570	1.8621
8.7422	1.8936
8.7275	1.9246
8.7129	1.9540
8.6982	1.9817
8.6837	2.0077
8.6692	2.0335
8.6547	2.0608
8.6403	2.0908
8.6259	2.1245
8.6116	2.1614
8.5973	2.2010
8.5830	2.2415
8.5688	2.2817
8.5547	2.3203
8.5406	2.3573
8.5266	2.3930
8.5126	2.4285
8.4986	2.4650
8.4847	2.5029
8.4708	2.5422
8.4570	2.5829
8.4432	2.6249
8.4295	2.6682
8.4158	2.7120
8.4022	2.7558
8.3886	2.7980
8.3750	2.8366
8.3615	2.8700
8.3481	2.8970
8.3347	2.9173
8.3213	2.9315
8.3079	2.9408
8.2946	2.9453
8.2814	2.9448
8.2682	2.9386
8.2550	2.9254
8.2419	2.9043
8.2288	2.8759
8.2158	2.8404
8.2028	2.7992
8.1898	2.7535
8.1769	2.7049
8.1640	2.6538
8.1512	2.6009
8.1384	2.5474
8.1256	2.4944
8.1129	2.4435
8.1002	2.3961
8.0876	2.3539
8.0750	2.3175
8.0624	2.2869
8.0499	2.2618
8.0374	2.2408
8.0250	2.2225
8.0126	2.2064
8.0002	2.1924
7.9879	2.1808
7.9756	2.1723
7.9634	2.1678
7.9512	2.1673
7.9390	2.1697
7.9268	2.1742
7.9147	2.1801
7.9027	2.1872
7.8906	2.1972
7.8786	2.2116
7.8667	2.2329
7.8548	2.2630
7.8429	2.3018
7.8310	2.3485
7.8192	2.4004
7.8075	2.4546
7.7957	2.5086
7.7840	2.5605
7.7723	2.6099
7.7607	2.6578
7.7491	2.7061
7.7375	2.7565
7.7260	2.8105
7.7145	2.8683
7.7031	2.9287
7.6916	2.9907
7.6802	3.0533
7.6689	3.1158
7.6575	3.1793
7.6462	3.2444
7.6350	3.3128
7.6238	3.3843
7.6126	3.4589
7.6014	3.5357
7.5903	3.6140
7.5792	3.6943
7.5681	3.7765
7.5571	3.8610
7.5461	3.9477
7.5351	4.0356
7.5242	4.1234
7.5133	4.2094
7.5024	4.2925
7.4916	4.3726
7.4807	4.4495
7.4700	4.5246
7.4592	4.5990
7.4485	4.6740
7.4378	4.7510
7.4272	4.8301
7.4165	4.9111
7.4059	4.9930
7.3954	5.0752
7.3848	5.1569
7.3743	5.2393
7.3639	5.3236
7.3534	5.4122
7.3430	5.5062
7.3326	5.6064
7.3223	5.7115
7.3119	5.8205
7.3016	5.9318
7.2914	6.0445
7.2811	6.1579
7.2709	6.2721
7.2607	6.3862
7.2506	6.4994
7.2404	6.6095
7.2303	6.7151
7.2203	6.8153
7.2102	6.9105
7.2002	7.0017
7.1902	7.0917
7.1803	7.1819
7.1703	7.2736
7.1604	7.3659
7.1506	7.4571
7.1407	7.5440
7.1309	7.6229
7.1211	7.6904
7.1113	7.7436
7.1016	7.7811
7.0919	7.8028
7.0822	7.8116
7.0725	7.8116
7.0629	7.8092
7.0533	7.8107
7.0437	7.8208
7.0341	7.8417
7.0246	7.8722
7.0151	7.9089
7.0056	7.9492
6.9962	7.9913
6.9867	8.0378
6.9773	8.0941
6.9679	8.1666
6.9586	8.2604
6.9493	8.3764
6.9400	8.5116
6.9307	8.6587
6.9214	8.8081
6.9122	8.9528
6.9030	9.0888
6.8938	9.2176
6.8847	9.3448
6.8755	9.4788
6.8664	9.6259
6.8573	9.7881
6.8483	9.9607
6.8393	10.136
6.8302	10.304
6.8213	10.458
6.8123	10.599
6.8034	10.731
6.7944	10.863
6.7855	11.003
6.7767	11.154
6.7678	11.315
6.7590	11.478
6.7502	11.638
6.7414	11.789
6.7327	11.933
6.7239	12.074
6.7152	12.216
6.7065	12.363
6.6979	12.512
6.6892	12.656
6.6806	12.787
6.6720	12.899
6.6634	12.991
6.6549	13.071
6.6464	13.152
6.6378	13.243
6.6294	13.352
6.6209	13.476
6.6124	13.604
6.6040	13.725
6.5956	13.834
6.5872	13.930
6.5789	14.023
6.5705	14.122
6.5622	14.234
6.5539	14.355
6.5456	14.473
6.5374	14.573
6.5292	14.642
6.5209	14.679
6.5128	14.698
6.5046	14.718
6.4964	14.761
6.4883	14.840
6.4802	14.951
6.4721	15.075
6.4640	15.180
6.4560	15.241
6.4480	15.243
6.4399	15.189
6.4320	15.100
6.4240	15.008
6.4160	14.938
6.4081	14.900
6.4002	14.889
6.3923	14.883
6.3844	14.857
6.3766	14.794
6.3687	14.688
6.3609	14.548
6.3531	14.392
6.3454	14.238
6.3376	14.100
6.3299	13.980
6.3221	13.874
6.3144	13.773
6.3068	13.671
6.2991	13.561
6.2914	13.443
6.2838	13.319
6.2762	13.191
6.2686	13.062
6.2611	12.930
6.2535	12.796
6.2460	12.657
6.2385	12.512
6.2310	12.359
6.2235	12.197
6.2160	12.027
6.2086	11.854
6.2011	11.683
6.1937	11.524
6.1863	11.386
6.1790	11.275
6.1716	11.193
6.1643	11.137
6.1570	11.099
6.1496	11.073
6.1424	11.054
6.1351	11.043
6.1278	11.046
6.1206	11.068
6.1134	11.116
6.1062	11.188
6.0990	11.278
6.0918	11.375
6.0847	11.472
6.0776	11.566
6.0704	11.664
6.0633	11.780
6.0563	11.930
6.0492	12.123
6.0421	12.361
6.0351	12.632
6.0281	12.917
6.0211	13.197
6.0141	13.458
6.0071	13.696
6.0002	13.917
5.9932	14.127
5.9863	14.333
5.9794	14.536
5.9725	14.732
5.9657	14.917
5.9588	15.090
5.9520	15.253
5.9451	15.416
5.9383	15.583
5.9315	15.753
5.9247	15.919
5.9180	16.070
5.9112	16.197
5.9045	16.303
5.8978	16.399
5.8911	16.507
5.8844	16.644
5.8777	16.816
5.8711	17.014
5.8644	17.214
5.8578	17.391
5.8512	17.523
5.8446	17.604
5.8380	17.646
5.8314	17.671
5.8249	17.701
5.8184	17.748
5.8118	17.810
5.8053	17.871
5.7988	17.911
5.7923	17.916
5.7859	17.884
5.7794	17.827
5.7730	17.765
5.7666	17.719
5.7602	17.697
5.7538	17.701
5.7474	17.717
5.7410	17.733
5.7347	17.735
5.7283	17.723
5.7220	17.699
5.7157	17.674
5.7094	17.656
5.7031	17.649
5.6969	17.652
5.6906	17.659
5.6844	17.665
5.6782	17.664
5.6719	17.656
5.6657	17.647
5.6596	17.643
5.6534	17.656
5.6472	17.694
5.6411	17.760
5.6349	17.855
5.6288	17.967
5.6227	18.084
5.6166	18.191
5.6106	18.276
5.6045	18.335
5.5984	18.372
5.5924	18.396
5.5864	18.424
5.5804	18.472
5.5744	18.552
5.5684	18.675
5.5624	18.841
5.5564	19.048
5.5505	19.289
5.5445	19.556
5.5386	19.840
5.5327	20.133
5.5268	20.431
5.5209	20.727
5.5151	21.015
5.5092	21.289
5.5033	21.545
5.4975	21.778
5.4917	21.989
5.4859	22.183
5.4801	22.366
5.4743	22.549
5.4685	22.738
5.4628	22.934
5.4570	23.133
5.4513	23.329
5.4455	23.515
5.4398	23.689
5.4341	23.854
5.4284	24.017
5.4228	24.184
5.4171	24.360
5.4114	24.542
5.4058	24.725
5.4002	24.899
5.3945	25.056
5.3889	25.190
5.3833	25.301
5.3778	25.390
5.3722	25.467
5.3666	25.539
5.3611	25.616
5.3555	25.706
5.3500	25.812
5.3445	25.935
5.3390	26.069
5.3335	26.207
5.3280	26.341
5.3225	26.467
5.3171	26.582
5.3116	26.690
5.3062	26.795
5.3008	26.905
5.2954	27.025
5.2900	27.157
5.2846	27.302
5.2792	27.459
5.2738	27.623
5.2684	27.791
5.2631	27.961
5.2578	28.132
5.2524	28.303
5.2471	28.478
5.2418	28.659
5.2365	28.849
5.2312	29.050
5.2260	29.264
5.2207	29.492
5.2154	29.732
5.2102	29.981
5.2050	30.237
5.1998	30.495
5.1945	30.752
5.1893	31.004
5.1842	31.250
5.1790	31.489
5.1738	31.720
5.1686	31.944
5.1635	32.163
5.1584	32.377
5.1532	32.591
5.1481	32.804
5.1430	33.021
5.1379	33.242
5.1328	33.466
5.1277	33.695
5.1227	33.927
5.1176	34.161
5.1126	34.397
5.1075	34.634
5.1025	34.871
5.0975	35.106
5.0925	35.335
5.0875	35.557
5.0825	35.766
5.0775	35.961
5.0726	36.138
5.0676	36.297
5.0627	36.439
5.0577	36.564
5.0528	36.676
5.0479	36.776
5.0430	36.867
5.0380	36.952
5.0332	37.032
5.0283	37.110
5.0234	37.187
5.0185	37.265
5.0137	37.347
5.0088	37.435
5.0040	37.531
4.9992	37.639
4.9944	37.762
4.9896	37.902
4.9848	38.061
4.9800	38.236
4.9752	38.426
4.9704	38.623
4.9657	38.820
4.9609	39.009
4.9562	39.182
4.9514	39.330
4.9467	39.450
4.9420	39.536
4.9373	39.591
4.9326	39.618
4.9279	39.624
4.9232	39.619
4.9186	39.611
4.9139	39.613
4.9092	39.631
4.9046	39.670
4.9000	39.732
4.8953	39.815
4.8907	39.915
4.8861	40.028
4.8815	40.148
4.8769	40.271
4.8723	40.396
4.8678	40.520
4.8632	40.645
4.8586	40.768
4.8541	40.887
4.8495	41.001
4.8450	41.106
4.8405	41.198
4.8360	41.276
4.8315	41.337
4.8270	41.381
4.8225	41.406
4.8180	41.414
4.8135	41.407
4.8090	41.386
4.8046	41.358
4.8001	41.326
4.7957	41.297
4.7913	41.277
4.7868	41.272
4.7824	41.287
4.7780	41.324
4.7736	41.387
4.7692	41.472
4.7648	41.577
4.7605	41.696
4.7561	41.823
4.7517	41.952
4.7474	42.079
4.7431	42.199
4.7387	42.313
4.7344	42.419
4.7301	42.519
4.7258	42.615
4.7215	42.707
4.7172	42.796
4.7129	42.882
4.7086	42.963
4.7043	43.040
4.7000	43.113
4.6958	43.184
4.6915	43.255
4.6873	43.328
4.6831	43.403
4.6788	43.482
4.6746	43.563
4.6704	43.646
4.6662	43.729
4.6620	43.815
4.6578	43.905
4.6536	44.002
4.6495	44.108
4.6453	44.224
4.6411	44.352
4.6370	44.492
4.6328	44.640
4.6287	44.796
4.6246	44.956
4.6205	45.118
4.6163	45.278
4.6122	45.435
4.6081	45.587
4.6040	45.732
4.6000	45.872
4.5959	46.006
4.5918	46.137
4.5877	46.267
4.5837	46.398
4.5796	46.533
4.5756	46.671
4.5716	46.813
4.5675	46.958
4.5635	47.103
4.5595	47.248
4.5555	47.392
4.5515	47.534
4.5475	47.675
4.5435	47.816
4.5395	47.957
4.5356	48.097
4.5316	48.237
4.5276	48.374
4.5237	48.510
4.5197	48.642
4.5158	48.771
4.5119	48.899
4.5080	49.024
4.5040	49.148
4.5001	49.272
4.4962	49.396
4.4923	49.521
4.4884	49.646
4.4846	49.771
4.4807	49.897
4.4768	50.023
4.4730	50.147
4.4691	50.270
4.4652	50.391
4.4614	50.509
4.4576	50.624
4.4537	50.736
4.4499	50.842
4.4461	50.945
4.4423	51.043
4.4385	51.137
4.4347	51.228
4.4309	51.316
4.4271	51.403
4.4233	51.488
4.4196	51.574
4.4158	51.661
4.4120	51.749
4.4083	51.840
4.4045	51.931
4.4008	52.024
4.3971	52.115
4.3934	52.206
4.3896	52.296
4.3859	52.386
4.3822	52.476
4.3785	52.569
4.3748	52.663
4.3711	52.758
4.3674	52.855
4.3638	52.951
4.3601	53.045
4.3564	53.137
4.3528	53.228
4.3491	53.316
4.3455	53.404
4.3418	53.491
4.3382	53.578
4.3346	53.664
4.3310	53.749
4.3273	53.832
4.3237	53.913
4.3201	53.993
4.3165	54.072
4.3129	54.150
4.3094	54.229
4.3058	54.306
4.3022	54.383
4.2986	54.458
4.2951	54.531
4.2915	54.602
4.2880	54.671
4.2844	54.739
4.2809	54.806
4.2774	54.872
4.2738	54.938
4.2703	55.006
4.2668	55.076
4.2633	55.146
4.2598	55.217
4.2563	55.287
4.2528	55.354
4.2493	55.417
4.2458	55.475
4.2424	55.529
4.2389	55.579
4.2354	55.628
4.2320	55.676
4.2285	55.726
4.2251	55.778
4.2216	55.832
4.2182	55.887
4.2148	55.942
4.2113	55.997
4.2079	56.051
4.2045	56.102
4.2011	56.150
4.1977	56.194
4.1943	56.232
4.1909	56.265
4.1875	56.295
4.1841	56.323
4.1808	56.350
4.1774	56.377
4.1740	56.404
4.1707	56.433
4.1673	56.464
4.1640	56.496
4.1606	56.531
4.1573	56.568
4.1540	56.607
4.1506	56.645
4.1473	56.682
4.1440	56.716
4.1407	56.748
4.1374	56.777
4.1341	56.805
4.1308	56.831
4.1275	56.856
4.1242	56.880
4.1209	56.902
4.1177	56.923
4.1144	56.941
4.1111	56.959
4.1079	56.976
4.1046	56.993
4.1014	57.012
4.0981	57.031
4.0949	57.051
4.0917	57.070
4.0884	57.087
4.0852	57.102
4.0820	57.114
4.0788	57.125
4.0756	57.135
4.0724	57.146
4.0692	57.159
4.0660	57.173
4.0628	57.186
4.0596	57.196
4.0565	57.202
4.0533	57.203
4.0501	57.199
4.0470	57.191
4.0438	57.180
4.0406	57.168
4.0375	57.155
4.0344	57.143
4.0312	57.131
4.0281	57.117
4.0250	57.101
4.0218	57.079
4.0187	57.052
4.0156	57.018
4.0125	56.979
4.0094	56.935
4.0063	56.887
4.0032	56.837
4.0001	56.785
3.9970	56.732
3.9940	56.681
3.9909	56.634
3.9878	56.594
3.9847	56.565
3.9817	56.547
3.9786	56.541
3.9756	56.546
3.9725	56.560
3.9695	56.580
3.9665	56.605
3.9634	56.633
3.9604	56.665
3.9574	56.699
3.9544	56.735
3.9513	56.773
3.9483	56.811
3.9453	56.847
3.9423	56.879
3.9393	56.905
3.9363	56.924
3.9333	56.936
3.9304	56.941
3.9274	56.941
3.9244	56.937
3.9214	56.930
3.9185	56.920
3.9155	56.908
3.9126	56.895
3.9096	56.881
3.9067	56.868
3.9037	56.857
3.9008	56.846
3.8979	56.834
3.8949	56.821
3.8920	56.805
3.8891	56.786
3.8862	56.764
3.8833	56.741
3.8804	56.717
3.8775	56.693
3.8746	56.671
3.8717	56.650
3.8688	56.630
3.8659	56.609
3.8630	56.587
3.8601	56.564
3.8573	56.539
3.8544	56.514
3.8515	56.489
3.8487	56.467
3.8458	56.446
3.8430	56.427
3.8401	56.410
3.8373	56.393
3.8344	56.375
3.8316	56.353
3.8288	56.328
3.8259	56.300
3.8231	56.270
3.8203	56.240
3.8175	56.212
3.8147	56.188
3.8119	56.167
3.8091	56.147
3.8063	56.127
3.8035	56.104
3.8007	56.077
3.7979	56.045
3.7951	56.008
3.7924	55.968
3.7896	55.925
3.7868	55.882
3.7841	55.837
3.7813	55.792
3.7785	55.747
3.7758	55.700
3.7730	55.651
3.7703	55.602
3.7676	55.551
3.7648	55.500
3.7621	55.448
3.7594	55.396
3.7566	55.342
3.7539	55.288
3.7512	55.232
3.7485	55.174
3.7458	55.117
3.7431	55.061
3.7404	55.005
3.7377	54.950
3.7350	54.896
3.7323	54.842
3.7296	54.787
3.7269	54.732
3.7242	54.676
3.7216	54.618
3.7189	54.559
3.7162	54.499
3.7136	54.437
3.7109	54.374
3.7083	54.310
3.7056	54.247
3.7030	54.185
3.7003	54.124
3.6977	54.064
3.6950	54.005
3.6924	53.945
3.6898	53.883
3.6872	53.819
3.6845	53.750
3.6819	53.679
3.6793	53.604
3.6767	53.528
3.6741	53.452
3.6715	53.378
3.6689	53.306
3.6663	53.237
3.6637	53.169
3.6611	53.100
3.6585	53.030
3.6560	52.956
3.6534	52.877
3.6508	52.793
3.6482	52.707
3.6457	52.621
3.6431	52.536
3.6406	52.454
3.6380	52.374
3.6355	52.294
3.6329	52.213
3.6304	52.128
3.6278	52.039
3.6253	51.947
3.6227	51.852
3.6202	51.756
3.6177	51.660
3.6152	51.565
3.6127	51.471
3.6101	51.377
3.6076	51.281
3.6051	51.183
3.6026	51.083
3.6001	50.980
3.5976	50.876
3.5951	50.770
3.5926	50.664
3.5901	50.556
3.5876	50.447
3.5852	50.337
3.5827	50.224
3.5802	50.110
3.5777	49.993
3.5753	49.876
3.5728	49.758
3.5704	49.638
3.5679	49.517
3.5654	49.392
3.5630	49.264
3.5605	49.132
3.5581	48.995
3.5557	48.856
3.5532	48.715
3.5508	48.573
3.5484	48.429
3.5459	48.283
3.5435	48.135
3.5411	47.984
3.5387	47.831
3.5363	47.676
3.5338	47.522
3.5314	47.370
3.5290	47.219
3.5266	47.070
3.5242	46.920
3.5218	46.769
3.5195	46.613
3.5171	46.454
3.5147	46.293
3.5123	46.136
3.5099	45.988
3.5075	45.856
3.5052	45.747
3.5028	45.665
3.5004	45.614
3.4981	45.589
3.4957	45.587
3.4934	45.598
3.4910	45.613
3.4887	45.621
3.4863	45.616
3.4840	45.594
3.4816	45.557
3.4793	45.508
3.4770	45.451
3.4746	45.388
3.4723	45.320
3.4700	45.248
3.4677	45.167
3.4653	45.076
3.4630	44.973
3.4607	44.858
3.4584	44.734
3.4561	44.603
3.4538	44.471
3.4515	44.342
3.4492	44.221
3.4469	44.111
3.4446	44.011
3.4423	43.920
3.4400	43.836
3.4378	43.756
3.4355	43.679
3.4332	43.601
3.4309	43.521
3.4287	43.435
3.4264	43.340
3.4241	43.237
3.4219	43.125
3.4196	43.008
3.4174	42.891
3.4151	42.779
3.4129	42.675
3.4106	42.577
3.4084	42.481
3.4061	42.382
3.4039	42.273
3.4017	42.152
3.3994	42.018
3.3972	41.876
3.3950	41.728
3.3928	41.579
3.3906	41.433
3.3883	41.293
3.3861	41.157
3.3839	41.026
3.3817	40.897
3.3795	40.769
3.3773	40.640
3.3751	40.508
3.3729	40.373
3.3707	40.237
3.3685	40.100
3.3663	39.965
3.3641	39.834
3.3620	39.707
3.3598	39.586
3.3576	39.468
3.3554	39.354
3.3533	39.242
3.3511	39.132
3.3489	39.024
3.3468	38.919
3.3446	38.817
3.3425	38.715
3.3403	38.613
3.3382	38.508
3.3360	38.396
3.3339	38.278
3.3317	38.152
3.3296	38.021
3.3274	37.885
3.3253	37.749
3.3232	37.612
3.3210	37.476
3.3189	37.342
3.3168	37.211
3.3147	37.081
3.3126	36.952
3.3104	36.823
3.3083	36.693
3.3062	36.561
3.3041	36.424
3.3020	36.283
3.2999	36.138
3.2978	35.990
3.2957	35.841
3.2936	35.694
3.2915	35.552
3.2894	35.418
3.2874	35.291
3.2853	35.169
3.2832	35.050
3.2811	34.931
3.2790	34.811
3.2770	34.687
3.2749	34.560
3.2728	34.433
3.2708	34.307
3.2687	34.183
3.2666	34.062
3.2646	33.943
3.2625	33.826
3.2605	33.713
3.2584	33.602
3.2564	33.494
3.2543	33.389
3.2523	33.287
3.2503	33.186
3.2482	33.087
3.2462	32.987
3.2442	32.886
3.2421	32.784
3.2401	32.680
3.2381	32.575
3.2361	32.469
3.2340	32.364
3.2320	32.259
3.2300	32.156
3.2280	32.052
3.2260	31.948
3.2240	31.842
3.2220	31.733
3.2200	31.621
3.2180	31.505
3.2160	31.385
3.2140	31.263
3.2120	31.138
3.2100	31.009
3.2080	30.878
3.2060	30.743
3.2040	30.605
3.2021	30.465
3.2001	30.324
3.1981	30.181
3.1961	30.037
3.1942	29.892
3.1922	29.747
3.1902	29.602
3.1883	29.458
3.1863	29.315
3.1844	29.171
3.1824	29.025
3.1805	28.876
3.1785	28.723
3.1766	28.569
3.1746	28.414
3.1727	28.261
3.1707	28.110
3.1688	27.961
3.1669	27.815
3.1649	27.669
3.1630	27.524
3.1611	27.379
3.1591	27.233
3.1572	27.086
3.1553	26.941
3.1534	26.797
3.1515	26.656
3.1495	26.517
3.1476	26.381
3.1457	26.245
3.1438	26.108
3.1419	25.969
3.1400	25.830
3.1381	25.691
3.1362	25.555
3.1343	25.421
3.1324	25.291
3.1305	25.163
3.1286	25.036
3.1268	24.909
3.1249	24.782
3.1230	24.656
3.1211	24.533
3.1192	24.413
3.1174	24.296
3.1155	24.182
3.1136	24.070
3.1117	23.961
3.1099	23.854
3.1080	23.750
3.1061	23.651
3.1043	23.554
3.1024	23.459
3.1006	23.363
3.0987	23.264
3.0969	23.162
3.0950	23.056
3.0932	22.948
3.0913	22.843
3.0895	22.743
3.0876	22.651
3.0858	22.568
3.0840	22.493
3.0821	22.427
3.0803	22.365
3.0785	22.306
3.0766	22.246
3.0748	22.183
3.0730	22.118
3.0712	22.051
3.0694	21.982
3.0675	21.914
3.0657	21.847
3.0639	21.782
3.0621	21.718
3.0603	21.655
3.0585	21.594
3.0567	21.536
3.0549	21.481
3.0531	21.429
3.0513	21.379
3.0495	21.330
3.0477	21.280
3.0459	21.225
3.0441	21.166
3.0423	21.102
3.0406	21.034
3.0388	20.964
3.0370	20.893
3.0352	20.822
3.0334	20.753
3.0317	20.686
3.0299	20.620
3.0281	20.555
3.0264	20.490
3.0246	20.425
3.0228	20.357
3.0211	20.289
3.0193	20.220
3.0176	20.151
3.0158	20.082
3.0140	20.014
3.0123	19.946
3.0105	19.878
3.0088	19.808
3.0070	19.737
3.0053	19.665
3.0036	19.592
3.0018	19.518
3.0001	19.444
2.9984	19.370
2.9966	19.294
2.9949	19.218
2.9932	19.140
2.9914	19.060
2.9897	18.979
2.9880	18.896
2.9863	18.811
2.9845	18.727
2.9828	18.645
2.9811	18.569
2.9794	18.499
2.9777	18.436
2.9760	18.378
2.9743	18.322
2.9726	18.265
2.9709	18.207
2.9692	18.146
2.9675	18.084
2.9658	18.024
2.9641	17.968
2.9624	17.917
2.9607	17.873
2.9590	17.833
2.9573	17.798
2.9556	17.767
2.9539	17.741
2.9523	17.718
2.9506	17.699
2.9489	17.683
2.9472	17.665
2.9455	17.645
2.9439	17.621
2.9422	17.594
2.9405	17.564
2.9389	17.536
2.9372	17.511
2.9355	17.491
2.9339	17.476
2.9322	17.464
2.9306	17.456
2.9289	17.450
2.9272	17.446
2.9256	17.443
2.9239	17.443
2.9223	17.447
2.9207	17.454
2.9190	17.465
2.9174	17.480
2.9157	17.499
2.9141	17.519
2.9124	17.539
2.9108	17.561
2.9092	17.585
2.9075	17.610
2.9059	17.636
2.9043	17.662
2.9027	17.685
2.9010	17.704
2.8994	17.719
2.8978	17.733
2.8962	17.747
2.8946	17.764
2.8929	17.783
2.8913	17.804
2.8897	17.826
2.8881	17.847
2.8865	17.867
2.8849	17.887
2.8833	17.907
2.8817	17.927
2.8801	17.947
2.8785	17.963
2.8769	17.974
2.8753	17.979
2.8737	17.977
2.8721	17.968
2.8705	17.954
2.8689	17.934
2.8673	17.909
2.8658	17.876
2.8642	17.837
2.8626	17.787
2.8610	17.727
2.8594	17.656
2.8579	17.575
2.8563	17.487
2.8547	17.393
2.8531	17.297
2.8516	17.199
2.8500	17.100
2.8484	16.996
2.8469	16.886
2.8453	16.768
2.8437	16.642
2.8422	16.510
2.8406	16.373
2.8391	16.235
2.8375	16.098
2.8360	15.964
2.8344	15.833
2.8329	15.707
2.8313	15.584
2.8298	15.465
2.8282	15.348
2.8267	15.233
2.8252	15.118
2.8236	15.003
2.8221	14.888
2.8205	14.773
2.8190	14.659
2.8175	14.548
2.8159	14.440
2.8144	14.335
2.8129	14.231
2.8114	14.130
2.8098	14.031
2.8083	13.938
2.8068	13.855
2.8053	13.787
2.8038	13.736
2.8022	13.705
2.8007	13.689
2.7992	13.686
2.7977	13.691
2.7962	13.699
2.7947	13.708
2.7932	13.720
2.7917	13.737
2.7902	13.762
2.7887	13.799
2.7872	13.850
2.7857	13.915
2.7842	13.992
2.7827	14.074
2.7812	14.159
2.7797	14.240
2.7782	14.314
2.7767	14.381
2.7752	14.443
2.7738	14.503
2.7723	14.565
2.7708	14.633
2.7693	14.712
2.7678	14.805
2.7664	14.913
2.7649	15.037
2.7634	15.175
2.7619	15.325
2.7605	15.490
2.7590	15.675
2.7575	15.890
2.7561	16.147
2.7546	16.452
2.7531	16.808
2.7517	17.205
2.7502	17.629
2.7488	18.062
2.7473	18.492
2.7458	18.913
2.7444	19.333
2.7429	19.762
2.7415	20.216
2.7400	20.708
2.7386	21.246
2.7371	21.833
2.7357	22.466
2.7343	23.134
2.7328	23.820
2.7314	24.499
2.7299	25.149
2.7285	25.753
2.7271	26.315
2.7256	26.860
2.7242	27.432
2.7228	28.082
2.7213	28.851
2.7199	29.754
2.7185	30.780
2.7171	31.892
2.7156	33.050
2.7142	34.220
2.7128	35.383
2.7114	36.534
2.7100	37.671
2.7085	38.787
2.7071	39.860
2.7057	40.860
2.7043	41.757
2.7029	42.532
2.7015	43.186
2.7001	43.742
2.6987	44.238
2.6973	44.718
2.6959	45.224
2.6945	45.779
2.6931	46.388
2.6917	47.035
2.6903	47.691
2.6889	48.321
2.6875	48.894
2.6861	49.387
2.6847	49.795
2.6833	50.123
2.6819	50.388
2.6805	50.609
2.6791	50.800
2.6778	50.969
2.6764	51.111
2.6750	51.216
2.6736	51.279
2.6722	51.308
2.6709	51.328
2.6695	51.377
2.6681	51.494
2.6667	51.704
2.6654	52.006
2.6640	52.372
2.6626	52.756
2.6613	53.108
2.6599	53.392
2.6585	53.592
2.6572	53.717
2.6558	53.790
2.6545	53.841
2.6531	53.893
2.6517	53.957
2.6504	54.033
2.6490	54.112
2.6477	54.188
2.6463	54.259
2.6450	54.326
2.6436	54.395
2.6423	54.467
2.6409	54.535
2.6396	54.582
2.6382	54.590
2.6369	54.544
2.6356	54.442
2.6342	54.300
2.6329	54.153
2.6315	54.039
2.6302	53.988
2.6289	54.009
2.6275	54.085
2.6262	54.181
2.6249	54.253
2.6236	54.273
2.6222	54.239
2.6209	54.175
2.6196	54.121
2.6183	54.118
2.6169	54.183
2.6156	54.304
2.6143	54.439
2.6130	54.539
2.6117	54.566
2.6103	54.510
2.6090	54.397
2.6077	54.279
2.6064	54.211
2.6051	54.220
2.6038	54.296
2.6025	54.389
2.6012	54.437
2.5999	54.395
2.5986	54.257
2.5973	54.069
2.5960	53.906
2.5947	53.835
2.5934	53.886
2.5921	54.039
2.5908	54.237
2.5895	54.413
2.5882	54.519
2.5869	54.549
2.5856	54.530
2.5843	54.506
2.5830	54.508
2.5817	54.546
2.5805	54.608
2.5792	54.667
2.5779	54.702
2.5766	54.709
2.5753	54.700
2.5741	54.692
2.5728	54.700
2.5715	54.724
2.5702	54.752
2.5690	54.766
2.5677	54.750
2.5664	54.706
2.5651	54.649
2.5639	54.606
2.5626	54.602
2.5613	54.649
2.5601	54.741
2.5588	54.854
2.5575	54.959
2.5563	55.032
2.5550	55.065
2.5538	55.063
2.5525	55.041
2.5513	55.017
2.5500	55.002
2.5487	55.000
2.5475	55.008
2.5462	55.021
2.5450	55.035
2.5437	55.050
2.5425	55.066
2.5413	55.080
2.5400	55.092
2.5388	55.098
2.5375	55.096
2.5363	55.088
2.5350	55.076
2.5338	55.066
2.5326	55.062
2.5313	55.063
2.5301	55.069
2.5289	55.076
2.5276	55.083
2.5264	55.086
2.5252	55.085
2.5239	55.083
2.5227	55.081
2.5215	55.081
2.5202	55.083
2.5190	55.086
2.5178	55.089
2.5166	55.090
2.5154	55.087
2.5141	55.082
2.5129	55.075
2.5117	55.068
2.5105	55.062
2.5093	55.058
2.5081	55.056
2.5068	55.055
2.5056	55.055
2.5044	55.054
2.5032	55.052
2.5020	55.048
2.5008	55.041
2.4996	55.033
2.4984	55.023
2.4972	55.015
2.4960	55.008
2.4948	55.004
2.4936	55.003
2.4924	55.003
2.4912	55.002
2.4900	55.002
2.4888	55.002
2.4876	55.005
2.4864	55.010
2.4852	55.020
2.4840	55.031
2.4828	55.041
2.4816	55.049
2.4805	55.053
2.4793	55.052
2.4781	55.049
2.4769	55.043
2.4757	55.036
2.4745	55.028
2.4734	55.021
2.4722	55.015
2.4710	55.011
2.4698	55.008
2.4686	55.006
2.4675	55.004
2.4663	55.000
2.4651	54.995
2.4640	54.990
2.4628	54.987
2.4616	54.986
2.4604	54.987
2.4593	54.990
2.4581	54.994
2.4569	54.997
2.4558	55.000
2.4546	55.002
2.4535	55.004
2.4523	55.005
2.4511	55.004
2.4500	55.002
2.4488	54.999
2.4477	54.996
2.4465	54.996
2.4454	55.000
2.4442	55.008
2.4431	55.019
2.4419	55.028
2.4408	55.035
2.4396	55.037
2.4385	55.034
2.4373	55.026
2.4362	55.016
2.4350	55.007
2.4339	54.998
2.4327	54.993
2.4316	54.991
2.4305	54.992
2.4293	54.996
2.4282	55.003
2.4270	55.011
2.4259	55.018
2.4248	55.022
2.4236	55.023
2.4225	55.021
2.4214	55.015
2.4202	55.009
2.4191	55.005
2.4180	55.003
2.4169	55.005
2.4157	55.009
2.4146	55.013
2.4135	55.014
2.4124	55.012
2.4112	55.005
2.4101	54.994
2.4090	54.982
2.4079	54.969
2.4068	54.959
2.4056	54.951
2.4045	54.945
2.4034	54.939
2.4023	54.932
2.4012	54.923
2.4001	54.910
2.3990	54.895
2.3979	54.879
2.3967	54.864
2.3956	54.853
2.3945	54.846
2.3934	54.844
2.3923	54.844
2.3912	54.844
2.3901	54.840
2.3890	54.831
2.3879	54.815
2.3868	54.795
2.3857	54.773
2.3846	54.753
2.3835	54.736
2.3824	54.724
2.3813	54.716
2.3802	54.712
2.3791	54.709
2.3781	54.707
2.3770	54.705
2.3759	54.702
2.3748	54.700
2.3737	54.697
2.3726	54.695
2.3715	54.693
2.3704	54.690
2.3694	54.684
2.3683	54.675
2.3672	54.660
2.3661	54.640
2.3650	54.617
2.3640	54.594
2.3629	54.575
2.3618	54.561
2.3607	54.552
2.3597	54.547
2.3586	54.542
2.3575	54.534
2.3564	54.520
2.3554	54.500
2.3543	54.476
2.3532	54.451
2.3522	54.429
2.3511	54.413
2.3500	54.403
2.3490	54.400
2.3479	54.402
2.3468	54.404
2.3458	54.407
2.3447	54.408
2.3436	54.407
2.3426	54.405
2.3415	54.401
2.3405	54.395
2.3394	54.389
2.3384	54.382
2.3373	54.375
2.3363	54.369
2.3352	54.364
2.3342	54.361
2.3331	54.360
2.3321	54.360
2.3310	54.361
2.3300	54.361
2.3289	54.361
2.3279	54.357
2.3268	54.348
2.3258	54.334
2.3247	54.314
2.3237	54.290
2.3226	54.263
2.3216	54.236
2.3206	54.212
2.3195	54.192
2.3185	54.176
2.3175	54.163
2.3164	54.153
2.3154	54.146
2.3144	54.144
2.3133	54.147
2.3123	54.155
2.3113	54.166
2.3102	54.177
2.3092	54.186
2.3082	54.191
2.3071	54.191
2.3061	54.189
2.3051	54.185
2.3041	54.180
2.3030	54.175
2.3020	54.171
2.3010	54.167
2.3000	54.164
2.2990	54.164
2.2979	54.166
2.2969	54.174
2.2959	54.184
2.2949	54.198
2.2939	54.215
2.2929	54.233
2.2918	54.254
2.2908	54.277
2.2898	54.303
2.2888	54.331
2.2878	54.361
2.2868	54.393
2.2858	54.423
2.2848	54.452
2.2838	54.479
2.2828	54.504
2.2818	54.526
2.2808	54.546
2.2798	54.564
2.2787	54.582
2.2777	54.598
2.2767	54.610
2.2757	54.619
2.2747	54.623
2.2738	54.620
2.2728	54.612
2.2718	54.602
2.2708	54.591
2.2698	54.582
2.2688	54.576
2.2678	54.572
2.2668	54.568
2.2658	54.561
2.2648	54.551
2.2638	54.536
2.2628	54.518
2.2618	54.499
2.2609	54.481
2.2599	54.466
2.2589	54.454
2.2579	54.443
2.2569	54.432
2.2559	54.419
2.2550	54.404
2.2540	54.387
2.2530	54.370
2.2520	54.357
2.2510	54.348
2.2501	54.346
2.2491	54.350
2.2481	54.359
2.2471	54.370
2.2462	54.382
2.2452	54.392
2.2442	54.397
2.2433	54.399
2.2423	54.396
2.2413	54.392
2.2403	54.388
2.2394	54.387
2.2384	54.389
2.2374	54.393
2.2365	54.397
2.2355	54.399
2.2345	54.396
2.2336	54.388
2.2326	54.378
2.2317	54.369
2.2307	54.364
2.2297	54.364
2.2288	54.368
2.2278	54.372
2.2269	54.376
2.2259	54.376
2.2250	54.373
2.2240	54.367
2.2231	54.359
2.2221	54.351
2.2211	54.342
2.2202	54.332
2.2192	54.324
2.2183	54.318
2.2173	54.315
2.2164	54.318
2.2155	54.325
2.2145	54.335
2.2136	54.347
2.2126	54.357
2.2117	54.362
2.2107	54.364
2.2098	54.362
2.2088	54.360
2.2079	54.360
2.2070	54.362
2.2060	54.368
2.2051	54.374
2.2041	54.379
2.2032	54.382
2.2023	54.382
2.2013	54.382
2.2004	54.383
2.1995	54.387
2.1985	54.395
2.1976	54.405
2.1967	54.416
2.1957	54.424
2.1948	54.428
2.1939	54.428
2.1930	54.425
2.1920	54.421
2.1911	54.417
2.1902	54.415
2.1893	54.415
2.1883	54.417
2.1874	54.420
2.1865	54.426
2.1856	54.433
2.1846	54.444
2.1837	54.458
2.1828	54.474
2.1819	54.491
2.1810	54.508
2.1800	54.523
2.1791	54.534
2.1782	54.536
2.1773	54.531
2.1764	54.519
2.1755	54.502
2.1746	54.484
2.1736	54.469
2.1727	54.459
2.1718	54.451
2.1709	54.444
2.1700	54.435
2.1691	54.423
2.1682	54.409
2.1673	54.395
2.1664	54.384
2.1655	54.381
2.1646	54.384
2.1637	54.394
2.1628	54.404
2.1619	54.412
2.1610	54.415
2.1601	54.410
2.1592	54.397
2.1583	54.378
2.1574	54.353
2.1565	54.327
2.1556	54.303
2.1547	54.282
2.1538	54.268
2.1529	54.259
2.1520	54.257
2.1511	54.261
2.1502	54.269
2.1493	54.278
2.1484	54.288
2.1475	54.297
2.1466	54.304
2.1458	54.305
2.1449	54.299
2.1440	54.288
2.1431	54.269
2.1422	54.246
2.1413	54.222
2.1404	54.201
2.1396	54.185
2.1387	54.174
2.1378	54.166
2.1369	54.159
2.1360	54.149
2.1352	54.136
2.1343	54.119
2.1334	54.104
2.1325	54.093
2.1316	54.090
2.1308	54.092
2.1299	54.097
2.1290	54.098
2.1281	54.093
2.1273	54.079
2.1264	54.059
2.1255	54.037
2.1247	54.017
2.1238	54.000
2.1229	53.988
2.1220	53.977
2.1212	53.967
2.1203	53.955
2.1194	53.943
2.1186	53.932
2.1177	53.926
2.1168	53.925
2.1160	53.930
2.1151	53.939
2.1143	53.950
2.1134	53.958
2.1125	53.960
2.1117	53.956
2.1108	53.944
2.1100	53.926
2.1091	53.904
2.1082	53.881
2.1074	53.860
2.1065	53.843
2.1057	53.832
2.1048	53.826
2.1040	53.825
2.1031	53.827
2.1023	53.832
2.1014	53.838
2.1005	53.845
2.0997	53.852
2.0988	53.859
2.0980	53.863
2.0971	53.865
2.0963	53.862
2.0955	53.854
2.0946	53.839
2.0938	53.819
2.0929	53.797
2.0921	53.775
2.0912	53.756
2.0904	53.744
2.0895	53.742
2.0887	53.750
2.0879	53.766
2.0870	53.787
2.0862	53.808
2.0853	53.819
2.0845	53.816
2.0837	53.799
2.0828	53.759
2.0820	53.726
2.0812	53.677
2.0803	53.622
2.0795	53.664
2.0760	53.664
2.0720	53.708
2.0680	54.033
2.0640	53.429
2.0600	53.110
2.0560	53.476
2.0520	53.941
2.0480	53.201
2.0440	53.108
2.0400	52.698
2.0360	52.653
2.0320	52.653
2.0280	52.383
2.0240	52.206
2.0200	52.430
2.0160	52.338
2.0120	51.972
2.0080	51.570
2.0040	51.301
2.0000	51.349
1.9960	51.264
1.9920	51.225
1.9880	51.220
1.9840	50.905
1.9800	50.379
1.9760	50.102
1.9720	50.060
1.9680	49.928
1.9640	49.969
1.9600	49.845
1.9560	49.672
1.9520	49.774
1.9480	49.593
1.9440	49.370
1.9400	49.098
1.9360	48.777
1.9320	48.799
1.9280	48.680
1.9240	48.826
1.9200	48.540
1.9160	48.263
1.9120	48.509
1.9080	48.808
1.9040	49.094
1.9000	49.522
1.8960	49.798
1.8920	49.935
1.8880	49.755
1.8840	49.393
1.8800	49.110
1.8760	48.924
1.8720	48.786
1.8680	48.938
1.8640	49.559
1.8600	50.298
1.8560	50.750
1.8520	50.847
1.8480	50.472
1.8440	50.062
1.8400	50.025
1.8360	50.110
1.8320	50.184
1.8280	50.440
1.8240	50.317
1.8200	49.857
1.8160	49.612
1.8120	49.242
1.8080	49.234
1.8040	49.394
1.8000	49.322
1.7960	49.322
1.7920	48.841
1.7880	48.555
1.7840	48.762
1.7800	48.841
1.7760	48.881
1.7720	48.872
1.7680	48.872
1.7640	48.753
1.7600	48.625
1.7560	48.409
1.7520	48.321
1.7480	48.204
1.7440	48.243
1.7400	48.262
1.7360	47.920
1.7320	47.998
1.7280	48.115
1.7240	48.154
1.7200	48.321
1.7160	48.578
1.7120	48.765
1.7080	48.439
1.7040	48.341
1.7000	48.047
1.6960	48.008
1.6920	48.223
1.6880	48.223
1.6840	47.969
1.6800	48.047
1.6760	47.920
1.6720	47.793
1.6680	47.540
1.6640	47.539
1.6600	47.732
1.6560	47.627
1.6520	47.577
1.6480	47.462
1.6440	47.110
1.6400	47.301
1.6360	47.137
1.6320	47.099
1.6280	47.417
1.6240	47.301
1.6200	47.187
1.6160	47.110
1.6120	47.099
1.6080	46.834
1.6040	46.658
1.6000	46.583
1.5960	46.671
1.5920	46.847
1.5880	47.012
1.5840	46.974
1.5800	46.847
1.5760	46.847
1.5720	46.822
1.5680	46.734
1.5640	46.772
1.5600	46.503
1.5560	46.583
1.5520	46.540
1.5480	46.645
1.5440	46.276
1.5400	45.951
1.5360	45.841
1.5320	45.966
1.5280	46.016
1.5240	46.044
1.5200	46.053
1.5160	46.239
1.5120	46.002
1.5080	45.768
1.5040	45.237
1.5000	45.351
1.4960	45.270
1.4920	45.489
1.4880	46.076
1.4840	45.566
1.4800	45.571
1.4760	45.571
1.4720	45.446
1.4680	45.373
1.4640	45.383
1.4600	45.461
1.4560	45.259
1.4520	45.187
1.4480	45.223
1.4440	44.904
1.4400	44.668
1.4360	44.581
1.4320	44.729
1.4280	44.795
1.4240	44.795
1.4200	44.759
1.4160	44.641
1.4120	44.221
1.4080	43.836
1.4040	43.924
1.4000	44.216
1.3960	44.468
1.3920	44.685
1.3880	44.705
1.3840	44.668
1.3800	44.559
1.3760	44.649
1.3720	45.258
1.3680	45.528
1.3640	44.639
1.3600	43.909
1.3560	43.891
1.3520	44.854
1.3480	45.510
1.3440	45.720
1.3400	45.312
1.3360	44.481
1.3320	44.027
1.3280	44.027
1.3240	44.201
1.3200	44.411
1.3160	44.482
1.3120	44.328
1.3080	44.223
1.3040	44.154
1.3000	43.910
1.2960	43.823
1.2920	43.839
1.2880	43.733
1.2840	43.558
1.2800	43.521
1.2760	43.517
1.2720	43.426
1.2680	43.441
1.2640	43.596
1.2600	43.711
1.2560	43.898
1.2520	43.798
1.2480	43.905
1.2440	43.905
1.2400	44.156
1.2360	44.319
1.2320	44.218
1.2280	43.711
1.2240	43.883
1.2200	44.008
1.2160	44.105
1.2120	44.094
1.2080	44.309
1.2040	44.417
1.2000	44.050
1.1960	43.525
1.1920	43.353
1.1880	43.372
1.1840	43.270
1.1800	43.202
1.1760	43.221
1.1720	43.154
1.1680	42.967
1.1640	42.725
1.1600	42.703
1.1560	42.376
1.1520	42.180
1.1480	42.224
1.1440	42.346
1.1400	42.613
1.1360	43.267
1.1320	42.837
1.1280	43.019
1.1240	42.782
1.1200	42.897
1.1160	42.910
1.1120	42.659
1.1080	42.537
1.1040	42.236
1.1000	42.448
1.0960	42.837
1.0920	42.974
1.0880	43.114
1.0840	42.991
1.0800	42.801
1.0760	42.724
1.0720	42.801
1.0680	43.025
1.0640	42.944
1.0600	42.765
1.0560	42.765
1.0520	42.843
1.0480	42.911
1.0440	42.786
1.0400	42.786
1.0360	42.853
1.0320	42.978
1.0280	42.843
1.0240	42.965
1.0200	42.921
1.0160	43.166
1.0120	43.135
1.0080	42.755
1.0040	42.709
1.0000	42.587
0.99600	42.666
0.99200	43.033
0.98800	42.788
0.98400	42.599
0.98000	42.103
0.97600	42.268
0.97200	42.301
0.96800	42.158
0.96400	42.037
0.96000	42.069
0.95600	41.870
0.95200	41.794
0.94800	41.432
0.94400	41.595
0.94000	41.529
0.93600	41.529
0.93200	41.176
0.92800	41.256
0.92400	41.103
0.92000	41.079
0.91600	40.847
0.91200	40.829
0.90800	40.677
0.90400	40.572
0.90000	40.604
0.89600	40.364
0.89200	40.396
0.88800	40.043
0.88400	40.407
0.88000	40.301
0.87600	40.180
0.87200	40.301
0.86800	40.283
0.86400	40.143
0.86000	40.344
0.85600	40.312
0.85200	40.230
0.84800	40.143
0.84400	40.223
0.84000	40.118
0.83600	40.352
0.83200	40.239
0.82800	40.329
0.82400	40.312
0.82000	40.451
0.81600	40.532
0.81200	40.532
0.80800	40.502
0.80400	40.368
0.80000	40.361
0.79900	39.519
0.79800	39.519
0.79700	39.798
0.79600	39.539
0.79500	39.615
0.79400	39.579
0.79300	39.257
0.79200	39.222
0.79100	39.414
0.79000	39.329
0.78900	39.519
0.78800	39.498
0.78700	39.398
0.78600	39.144
0.78500	39.144
0.78400	39.434
0.78300	39.471
0.78200	39.398
0.78100	39.130
0.78000	39.334
0.77900	39.371
0.77800	39.277
0.77700	39.398
0.77600	39.037
0.77500	39.050
0.77400	38.805
0.77300	38.819
0.77200	38.948
0.77100	38.951
0.77000	38.951
0.76900	38.948
0.76800	38.937
0.76700	38.948
0.76600	39.135
0.76500	39.141
0.76400	39.080
0.76300	38.658
0.76200	38.419
0.76100	38.666
0.76000	38.526
0.75900	38.500
0.75800	38.536
0.75700	38.668
0.75600	38.500
0.75500	38.271
0.75400	38.306
0.75300	38.342
0.75200	38.175
0.75100	38.429
0.75000	38.271
0.74900	38.078
0.74800	38.069
0.74700	38.336
0.74600	38.157
0.74500	38.168
0.74400	38.239
0.74300	38.071
0.74200	37.773
0.74100	37.957
0.74000	38.090
0.73900	38.071
0.73800	37.878
0.73700	37.913
0.73600	38.168
0.73500	37.685
0.73400	37.339
0.73300	37.367
0.73200	37.736
0.73100	37.763
0.73000	37.596
0.72900	37.798
0.72800	37.283
0.72700	37.305
0.72600	36.879
0.72500	37.208
0.72400	37.208
0.72300	37.098
0.72200	37.002
0.72100	37.270
0.72000	37.367
0.71900	37.270
0.71800	36.923
0.71700	36.792
0.71600	36.502
0.71500	36.792
0.71400	36.935
0.71300	36.900
0.71200	36.955
0.71100	36.491
0.71000	36.491
0.70900	36.261
0.70800	36.161
0.70700	36.626
0.70600	36.726
0.70500	36.571
0.70400	36.473
0.70300	36.400
0.70200	36.405
0.70100	36.660
0.70000	36.334
0.69900	36.371
0.69800	36.761
0.69700	36.543
0.69600	36.528
0.69500	36.422
0.69400	36.352
0.69300	35.844
0.69200	36.144
0.69100	36.248
0.69000	36.013
0.68900	35.985
0.68800	35.982
0.68700	36.048
0.68600	36.348
0.68500	36.051
0.68400	35.882
0.68300	35.951
0.68200	35.954
0.68100	35.985
0.68000	35.782
0.67900	35.479
0.67800	35.579
0.67700	35.822
0.67600	35.451
0.67500	35.349
0.67400	35.484
0.67300	35.249
0.67200	35.180
0.67100	35.484
0.67000	35.450
0.66900	35.347
0.66800	35.521
0.66700	35.487
0.66600	35.318
0.66500	35.349
0.66400	35.081
0.66300	35.015
0.66200	35.151
0.66100	35.117
0.66000	34.915
0.65900	35.016
0.65800	35.220
0.65700	35.323
0.65600	35.153
0.65500	35.016
0.65400	35.153
0.65300	34.916
0.65200	34.713
0.65100	34.949
0.65000	34.645
0.64900	34.815
0.64800	34.815
0.64700	34.714
0.64600	34.748
0.64500	34.512
0.64400	34.613
0.64300	34.613
0.64200	34.478
0.64100	34.545
0.64000	34.647
0.63900	34.444
0.63800	34.139
0.63700	34.175
0.63600	34.445
0.63500	34.311
0.63400	34.344
0.63300	34.344
0.63200	34.175
0.63100	34.311
0.63000	34.511
0.62900	34.308
0.62800	34.207
0.62700	34.107
0.62600	34.107
0.62500	34.107
0.62400	33.837
0.62300	33.969
0.62200	33.969
0.62100	33.733
0.62000	33.664
0.61900	33.664
0.61800	34.002
0.61700	33.631
0.61600	33.497
0.61500	33.432
0.61400	33.432
0.61300	33.468
0.61200	33.400
0.61100	33.400
0.61000	33.298
0.60900	33.096
0.60800	32.995
0.60700	33.027
0.60600	32.990
0.60500	33.022
0.60400	32.921
0.60300	32.780
0.60200	32.808
0.60100	32.834
0.60000	32.635
0.59900	32.297
0.59800	32.629
0.59700	32.693
0.59600	32.513
0.59500	32.403
0.59400	32.339
0.59300	32.577
0.59200	32.307
0.59100	32.203
0.59000	32.211
0.58900	32.029
0.58800	31.957
0.58700	31.894
0.58600	31.791
0.58500	31.594
0.58400	31.688
0.58300	31.575
0.58200	31.388
0.58100	31.440
0.58000	31.275
0.57900	31.440
0.57800	31.481
0.57700	31.275
0.57600	31.068
0.57500	30.862
0.57400	30.974
0.57300	31.041
0.57200	30.902
0.57100	30.860
0.57000	31.022
0.56900	30.789
0.56800	30.657
0.56700	30.556
0.56600	30.383
0.56500	30.281
0.56400	30.281
0.56300	30.150
0.56200	30.049
0.56100	30.107
0.56000	29.889
0.55900	28.753
0.55800	29.848
0.55700	29.571
0.55600	29.504
0.55500	29.493
0.55400	29.396
0.55300	29.423
0.55200	29.432
0.55100	29.403
0.55000	29.370
0.54900	29.549
0.54800	29.450
0.54700	29.256
0.54600	29.224
0.54500	29.201
0.54400	28.880
0.54300	29.015
0.54200	29.042
0.54100	29.108
0.54000	28.916
0.53900	28.861
0.53800	28.871
0.53700	28.992
0.53600	29.180
0.53500	29.080
0.53400	28.864
0.53300	28.855
0.53200	28.943
0.53100	28.871
0.53000	28.854
0.52900	28.783
0.52800	28.511
0.52700	28.331
0.52600	28.153
0.52500	28.457
0.52400	28.493
0.52300	28.126
0.52200	28.297
0.52100	28.449
0.52000	28.385
0.51900	28.420
0.51800	28.081
0.51700	27.956
0.51600	27.987
0.51500	27.804
0.51400	27.800
0.51300	28.001
0.51200	28.061
0.51100	28.002
0.51000	27.864
0.50900	28.114
0.50800	27.511
0.50700	27.412
0.50600	27.359
0.50500	27.709
0.50400	27.588
0.50300	27.432
0.50200	27.705
0.50100	27.412
0.50000	27.339
0.49900	27.390
0.49800	27.288
0.49700	27.489
0.49600	27.290
0.49500	27.266
0.49400	27.114
0.49300	26.625
0.49200	26.893
0.49100	26.895
0.49000	27.167
0.48900	27.043
0.48800	26.821
0.48700	26.674
0.48600	26.503
0.48500	26.405
0.48400	26.698
0.48300	26.699
0.48200	26.872
0.48100	26.773
0.48000	26.600
0.47900	26.431
0.47800	26.234
0.47700	26.135
0.47600	26.281
0.47500	26.356
0.47400	26.234
0.47300	26.163
0.47200	26.163
0.47100	26.113
0.47000	26.066
0.46900	25.801
0.46800	25.605
0.46700	25.847
0.46600	25.899
0.46500	25.926
0.46400	25.732
0.46300	25.840
0.46200	25.750
0.46100	25.773
0.46000	25.434
0.45900	25.560
0.45800	25.825
0.45700	25.510
0.45600	25.444
0.45500	25.396
0.45400	25.421
0.45300	25.464
0.45200	25.305
0.45100	25.419
0.45000	25.429
0.44900	25.304
0.44800	25.201
0.44700	25.226
0.44600	25.038
0.44500	24.517
0.44400	24.411
0.44300	24.686
0.44200	24.716
0.44100	24.568
0.44000	24.760
0.43900	24.418
0.43800	24.548
0.43700	24.554
0.43600	24.108
0.43500	23.795
0.43400	23.837
0.43300	23.879
0.43200	23.730
0.43100	23.837
0.43000	23.667
0.42900	23.896
0.42800	23.152
0.42700	23.309
0.42600	23.476
0.42500	22.994
0.42400	22.842
0.42300	23.048
0.42200	22.846
0.42100	22.711
0.42000	23.168
0.41900	22.815
0.41800	22.545
0.41700	22.649
0.41600	22.545
0.41500	22.545
0.41400	22.560
0.41300	22.252
0.41200	22.137
0.41100	22.013
0.41000	21.905
0.40900	21.660
0.40800	21.834
0.40700	21.784
0.40600	21.888
0.40500	21.590
0.40400	21.499
0.40300	21.607
0.40200	21.594
0.40100	21.468
0.40000	21.538
0.0000	
