Name: Limestone-Siltstone 
Type:  Rocks
Class:  Sedimentary
Subclass: Siltstone 
Particle Size:  0 - 75 Micrometers
Sample No.:  siltstone.2
Owner:  JHU
Wavelength Range:  All
Origin:  Sample No. 352,  The Hunt and Salisbury Collection at the U.S. 
Geological Survey, Denver, Co.
Description: This sample contains a microcrystalline groundmass or 
matrix of quartz, carbonate, and possibly some clay. There are 
irregular regions of larger anhedra of carbonate and quartz, with 
some grains of muscovite, glauconite, and green biotite.


Measurement:  Directional (10 Degree) Hemispherical Reflectance
First Column:  X
Second Column:  Y  
X Units:  Wavelength (micrometers)
Y Units:  Reflectance (percent)
First X Value: 14.0112
Last X Value:  0.4
Number of X Values: 2844
Additional Information:  None

14.983	1.8327
14.940	1.7899
14.897	1.7738
14.854	1.8050
14.812	1.8957
14.770	2.0335
14.728	2.1830
14.686	2.3153
14.645	2.4148
14.603	2.4669
14.562	2.4494
14.521	2.3518
14.481	2.1851
14.441	1.9800
14.400	1.7887
14.361	1.6710
14.321	1.6726
14.281	1.8069
14.242	2.0499
14.203	2.3535
14.164	2.6665
14.126	2.9493
14.087	3.1835
14.049	3.3680
14.011	3.5084
13.973	3.6122
13.936	3.6839
13.899	3.7277
13.861	3.7483
13.824	3.7507
13.788	3.7417
13.751	3.7277
13.715	3.7111
13.679	3.6915
13.643	3.6664
13.607	3.6342
13.571	3.5949
13.536	3.5480
13.500	3.4975
13.465	3.4516
13.430	3.4196
13.396	3.4111
13.361	3.4350
13.327	3.4973
13.293	3.6001
13.259	3.7396
13.225	3.9091
13.191	4.0967
13.158	4.2823
13.124	4.4401
13.091	4.5419
13.058	4.5625
13.026	4.4867
12.993	4.3157
12.960	4.0709
12.928	3.7881
12.896	3.5094
12.864	3.2709
12.832	3.0961
12.800	2.9912
12.769	2.9443
12.737	2.9320
12.706	2.9268
12.675	2.9050
12.644	2.8503
12.614	2.7572
12.583	2.6310
12.552	2.4866
12.522	2.3447
12.492	2.2270
12.462	2.1522
12.432	2.1332
12.402	2.1728
12.373	2.2614
12.343	2.3817
12.314	2.5126
12.285	2.6350
12.256	2.7359
12.227	2.8127
12.198	2.8712
12.169	2.9228
12.141	2.9803
12.113	3.0537
12.084	3.1485
12.056	3.2645
12.028	3.3976
12.000	3.5437
11.973	3.6995
11.945	3.8613
11.918	4.0261
11.890	4.1890
11.863	4.3432
11.836	4.4803
11.809	4.5940
11.782	4.6816
11.755	4.7448
11.729	4.7868
11.702	4.8104
11.676	4.8171
11.650	4.8057
11.624	4.7749
11.598	4.7247
11.572	4.6582
11.546	4.5812
11.520	4.4986
11.495	4.4152
11.469	4.3342
11.444	4.2575
11.419	4.1864
11.394	4.1234
11.369	4.0713
11.344	4.0318
11.319	4.0036
11.294	3.9828
11.270	3.9607
11.245	3.9278
11.221	3.8757
11.197	3.8004
11.173	3.7033
11.149	3.5894
11.125	3.4675
11.101	3.3472
11.077	3.2351
11.054	3.1373
11.030	3.0582
11.007	3.0026
10.983	2.9730
10.960	2.9697
10.937	2.9917
10.914	3.0353
10.891	3.0940
10.868	3.1613
10.846	3.2332
10.823	3.3093
10.800	3.3895
10.778	3.4757
10.755	3.5700
10.733	3.6723
10.711	3.7805
10.689	3.8902
10.667	3.9965
10.645	4.0938
10.623	4.1760
10.602	4.2385
10.580	4.2788
10.558	4.2961
10.537	4.2892
10.516	4.2587
10.494	4.2049
10.473	4.1279
10.452	4.0292
10.431	3.9120
10.410	3.7822
10.389	3.6472
10.368	3.5143
10.348	3.3903
10.327	3.2799
10.306	3.1856
10.286	3.1070
10.266	3.0417
10.245	2.9870
10.225	2.9398
10.205	2.8986
10.185	2.8624
10.165	2.8323
10.145	2.8098
10.125	2.7951
10.106	2.7880
10.086	2.7864
10.066	2.7885
10.047	2.7928
10.027	2.7985
10.008	2.8063
9.9887	2.8174
9.9695	2.8309
9.9504	2.8463
9.9313	2.8626
9.9123	2.8794
9.8934	2.8958
9.8746	2.9119
9.8558	2.9289
9.8371	2.9484
9.8185	2.9713
9.7999	2.9995
9.7814	3.0355
9.7630	3.0805
9.7447	3.1338
9.7264	3.1925
9.7082	3.2534
9.6900	3.3114
9.6719	3.3611
9.6539	3.3993
9.6360	3.4246
9.6181	3.4367
9.6003	3.4362
9.5825	3.4232
9.5649	3.3990
9.5472	3.3649
9.5297	3.3218
9.5122	3.2749
9.4948	3.2321
9.4774	3.2034
9.4601	3.2003
9.4429	3.2321
9.4257	3.3041
9.4086	3.4156
9.3916	3.5584
9.3746	3.7204
9.3577	3.8873
9.3408	4.0451
9.3240	4.1843
9.3073	4.3003
9.2906	4.3958
9.2740	4.4761
9.2574	4.5490
9.2409	4.6205
9.2245	4.6935
9.2081	4.7676
9.1918	4.8403
9.1755	4.9087
9.1593	4.9719
9.1431	5.0302
9.1270	5.0830
9.1110	5.1292
9.0950	5.1666
9.0791	5.1922
9.0632	5.2031
9.0474	5.1976
9.0316	5.1773
9.0159	5.1448
9.0003	5.1031
8.9847	5.0551
8.9691	5.0039
8.9536	4.9523
8.9382	4.9011
8.9228	4.8507
8.9075	4.8007
8.8922	4.7512
8.8770	4.7006
8.8618	4.6492
8.8467	4.5992
8.8316	4.5528
8.8166	4.5121
8.8016	4.4770
8.7867	4.4457
8.7718	4.4150
8.7570	4.3785
8.7423	4.3285
8.7275	4.2568
8.7129	4.1556
8.6982	4.0209
8.6837	3.8573
8.6692	3.6815
8.6547	3.5231
8.6403	3.4142
8.6259	3.3784
8.6116	3.4225
8.5973	3.5316
8.5830	3.6732
8.5688	3.8094
8.5547	3.9098
8.5406	3.9612
8.5266	3.9652
8.5126	3.9340
8.4986	3.8824
8.4847	3.8213
8.4708	3.7571
8.4570	3.6927
8.4432	3.6306
8.4295	3.5747
8.4158	3.5288
8.4022	3.4963
8.3886	3.4793
8.3750	3.4765
8.3615	3.4876
8.3481	3.5155
8.3347	3.5660
8.3213	3.6463
8.3079	3.7640
8.2946	3.9250
8.2814	4.1317
8.2682	4.3811
8.2550	4.6667
8.2419	4.9779
8.2288	5.2997
8.2158	5.6132
8.2028	5.8981
8.1898	6.1347
8.1769	6.3081
8.1640	6.4108
8.1512	6.4447
8.1384	6.4201
8.1256	6.3523
8.1129	6.2595
8.1002	6.1574
8.0876	6.0587
8.0750	5.9706
8.0624	5.8972
8.0499	5.8401
8.0374	5.7987
8.0250	5.7703
8.0126	5.7506
8.0002	5.7335
7.9879	5.7120
7.9756	5.6791
7.9634	5.6303
7.9512	5.5656
7.9390	5.4884
7.9268	5.4044
7.9147	5.3201
7.9027	5.2414
7.8906	5.1716
7.8786	5.1110
7.8667	5.0593
7.8548	5.0174
7.8429	4.9873
7.8310	4.9734
7.8192	4.9802
7.8075	5.0117
7.7957	5.0671
7.7840	5.1425
7.7723	5.2303
7.7607	5.3229
7.7491	5.4136
7.7375	5.5005
7.7260	5.5846
7.7145	5.6687
7.7031	5.7549
7.6916	5.8430
7.6802	5.9306
7.6689	6.0139
7.6575	6.0895
7.6462	6.1577
7.6350	6.2226
7.6238	6.2901
7.6126	6.3661
7.6014	6.4549
7.5903	6.5567
7.5792	6.6673
7.5681	6.7803
7.5571	6.8883
7.5461	6.9854
7.5351	7.0678
7.5242	7.1353
7.5133	7.1904
7.5024	7.2376
7.4916	7.2811
7.4807	7.3249
7.4700	7.3728
7.4592	7.4258
7.4485	7.4841
7.4378	7.5473
7.4272	7.6146
7.4165	7.6835
7.4059	7.7510
7.3954	7.8142
7.3848	7.8708
7.3743	7.9189
7.3639	7.9587
7.3534	7.9918
7.3430	8.0198
7.3326	8.0449
7.3223	8.0690
7.3119	8.0953
7.3016	8.1273
7.2914	8.1690
7.2811	8.2225
7.2709	8.2890
7.2607	8.3653
7.2506	8.4458
7.2404	8.5239
7.2303	8.5933
7.2203	8.6497
7.2102	8.6921
7.2002	8.7212
7.1902	8.7409
7.1803	8.7574
7.1703	8.7773
7.1604	8.8081
7.1506	8.8545
7.1407	8.9190
7.1309	9.0011
7.1211	9.0989
7.1113	9.2114
7.1016	9.3391
7.0919	9.4845
7.0822	9.6488
7.0725	9.8307
7.0629	10.024
7.0533	10.216
7.0437	10.393
7.0341	10.542
7.0246	10.652
7.0151	10.721
7.0056	10.753
6.9962	10.758
6.9867	10.748
6.9773	10.734
6.9679	10.725
6.9586	10.724
6.9493	10.730
6.9400	10.741
6.9307	10.753
6.9214	10.762
6.9122	10.767
6.9030	10.766
6.8938	10.758
6.8847	10.747
6.8755	10.736
6.8664	10.733
6.8573	10.743
6.8483	10.766
6.8393	10.800
6.8302	10.838
6.8213	10.873
6.8123	10.900
6.8034	10.921
6.7944	10.940
6.7855	10.962
6.7767	10.990
6.7678	11.025
6.7590	11.067
6.7502	11.111
6.7414	11.156
6.7327	11.203
6.7239	11.261
6.7152	11.336
6.7065	11.439
6.6979	11.576
6.6892	11.748
6.6806	11.947
6.6720	12.158
6.6634	12.366
6.6549	12.564
6.6464	12.750
6.6378	12.927
6.6294	13.099
6.6209	13.268
6.6124	13.429
6.6040	13.577
6.5956	13.707
6.5872	13.826
6.5789	13.946
6.5705	14.087
6.5622	14.268
6.5539	14.508
6.5456	14.816
6.5374	15.194
6.5292	15.633
6.5209	16.119
6.5128	16.638
6.5046	17.174
6.4964	17.719
6.4883	18.265
6.4802	18.801
6.4721	19.312
6.4640	19.779
6.4560	20.183
6.4480	20.515
6.4399	20.778
6.4320	20.985
6.4240	21.161
6.4160	21.321
6.4081	21.468
6.4002	21.590
6.3923	21.663
6.3844	21.667
6.3766	21.586
6.3687	21.419
6.3609	21.181
6.3531	20.892
6.3454	20.566
6.3376	20.215
6.3299	19.844
6.3221	19.461
6.3144	19.064
6.3068	18.656
6.2991	18.241
6.2914	17.826
6.2838	17.414
6.2762	17.010
6.2686	16.623
6.2611	16.262
6.2535	15.936
6.2460	15.653
6.2385	15.417
6.2310	15.233
6.2235	15.102
6.2160	15.028
6.2086	15.016
6.2011	15.076
6.1937	15.218
6.1863	15.446
6.1790	15.758
6.1716	16.142
6.1643	16.573
6.1570	17.021
6.1496	17.454
6.1424	17.848
6.1351	18.188
6.1278	18.471
6.1206	18.707
6.1134	18.909
6.1062	19.084
6.0990	19.233
6.0918	19.349
6.0847	19.422
6.0776	19.447
6.0704	19.427
6.0633	19.382
6.0563	19.335
6.0492	19.303
6.0421	19.291
6.0351	19.292
6.0281	19.293
6.0211	19.270
6.0141	19.207
6.0071	19.100
6.0002	18.955
5.9932	18.781
5.9863	18.587
5.9794	18.386
5.9725	18.186
5.9657	17.994
5.9588	17.821
5.9520	17.684
5.9451	17.605
5.9383	17.599
5.9315	17.672
5.9247	17.818
5.9180	18.020
5.9112	18.256
5.9045	18.507
5.8978	18.765
5.8911	19.035
5.8844	19.323
5.8777	19.632
5.8711	19.958
5.8644	20.288
5.8578	20.608
5.8512	20.904
5.8446	21.171
5.8380	21.414
5.8314	21.643
5.8249	21.870
5.8184	22.101
5.8118	22.332
5.8053	22.554
5.7988	22.751
5.7923	22.912
5.7859	23.035
5.7794	23.129
5.7730	23.211
5.7666	23.295
5.7602	23.388
5.7538	23.491
5.7474	23.594
5.7410	23.683
5.7347	23.749
5.7283	23.791
5.7220	23.812
5.7157	23.814
5.7094	23.801
5.7031	23.771
5.6969	23.718
5.6906	23.632
5.6844	23.505
5.6782	23.330
5.6719	23.102
5.6657	22.824
5.6596	22.502
5.6534	22.153
5.6472	21.796
5.6411	21.452
5.6349	21.138
5.6288	20.860
5.6227	20.622
5.6166	20.417
5.6106	20.239
5.6045	20.083
5.5984	19.946
5.5924	19.829
5.5864	19.736
5.5804	19.670
5.5744	19.632
5.5684	19.620
5.5624	19.631
5.5564	19.658
5.5505	19.697
5.5445	19.746
5.5386	19.811
5.5327	19.898
5.5268	20.016
5.5209	20.169
5.5151	20.361
5.5092	20.591
5.5033	20.859
5.4975	21.166
5.4917	21.516
5.4859	21.913
5.4801	22.360
5.4743	22.852
5.4685	23.373
5.4628	23.895
5.4570	24.383
5.4513	24.801
5.4455	25.121
5.4398	25.323
5.4341	25.401
5.4284	25.357
5.4228	25.196
5.4171	24.920
5.4114	24.532
5.4058	24.040
5.4002	23.458
5.3945	22.810
5.3889	22.132
5.3833	21.465
5.3778	20.846
5.3722	20.308
5.3666	19.871
5.3611	19.548
5.3555	19.342
5.3500	19.245
5.3445	19.245
5.3390	19.323
5.3335	19.461
5.3280	19.640
5.3225	19.845
5.3171	20.071
5.3116	20.317
5.3062	20.590
5.3008	20.899
5.2954	21.253
5.2900	21.661
5.2846	22.127
5.2792	22.652
5.2738	23.235
5.2684	23.872
5.2631	24.560
5.2578	25.302
5.2524	26.094
5.2471	26.932
5.2418	27.806
5.2365	28.697
5.2312	29.580
5.2260	30.426
5.2207	31.209
5.2154	31.908
5.2102	32.508
5.2050	33.006
5.1998	33.405
5.1945	33.719
5.1893	33.963
5.1842	34.154
5.1790	34.311
5.1738	34.446
5.1686	34.565
5.1635	34.672
5.1584	34.766
5.1532	34.850
5.1481	34.926
5.1430	35.001
5.1379	35.082
5.1328	35.172
5.1277	35.269
5.1227	35.363
5.1176	35.438
5.1126	35.473
5.1075	35.447
5.1025	35.350
5.0975	35.178
5.0925	34.942
5.0875	34.664
5.0825	34.373
5.0775	34.100
5.0726	33.869
5.0676	33.697
5.0627	33.587
5.0577	33.531
5.0528	33.516
5.0479	33.520
5.0430	33.524
5.0380	33.513
5.0332	33.481
5.0283	33.434
5.0234	33.385
5.0185	33.350
5.0137	33.348
5.0088	33.392
5.0040	33.493
4.9992	33.658
4.9944	33.896
4.9896	34.218
4.9848	34.632
4.9800	35.138
4.9752	35.725
4.9704	36.364
4.9657	37.018
4.9609	37.642
4.9562	38.198
4.9514	38.666
4.9467	39.047
4.9420	39.362
4.9373	39.647
4.9326	39.949
4.9279	40.310
4.9232	40.767
4.9186	41.337
4.9139	42.022
4.9092	42.804
4.9046	43.651
4.9000	44.520
4.8953	45.373
4.8907	46.173
4.8861	46.899
4.8815	47.542
4.8769	48.103
4.8723	48.593
4.8678	49.023
4.8632	49.403
4.8586	49.741
4.8541	50.040
4.8495	50.306
4.8450	50.545
4.8405	50.762
4.8360	50.962
4.8315	51.149
4.8270	51.326
4.8225	51.494
4.8180	51.654
4.8135	51.811
4.8090	51.967
4.8046	52.127
4.8001	52.293
4.7957	52.468
4.7913	52.649
4.7868	52.836
4.7824	53.028
4.7780	53.225
4.7736	53.425
4.7692	53.629
4.7648	53.835
4.7605	54.042
4.7561	54.250
4.7517	54.456
4.7474	54.659
4.7431	54.857
4.7387	55.047
4.7344	55.226
4.7301	55.391
4.7258	55.540
4.7215	55.669
4.7172	55.773
4.7129	55.849
4.7086	55.892
4.7043	55.899
4.7000	55.876
4.6958	55.835
4.6915	55.796
4.6873	55.778
4.6831	55.799
4.6788	55.868
4.6746	55.985
4.6704	56.141
4.6662	56.325
4.6620	56.529
4.6578	56.745
4.6536	56.973
4.6495	57.211
4.6453	57.459
4.6411	57.713
4.6370	57.968
4.6328	58.221
4.6287	58.470
4.6246	58.714
4.6205	58.957
4.6163	59.205
4.6122	59.462
4.6081	59.729
4.6040	60.005
4.6000	60.287
4.5959	60.568
4.5918	60.841
4.5877	61.102
4.5837	61.346
4.5796	61.574
4.5756	61.783
4.5716	61.976
4.5675	62.153
4.5635	62.316
4.5595	62.464
4.5555	62.592
4.5515	62.697
4.5475	62.778
4.5435	62.832
4.5395	62.860
4.5356	62.866
4.5316	62.852
4.5276	62.821
4.5237	62.772
4.5197	62.705
4.5158	62.618
4.5119	62.516
4.5080	62.407
4.5040	62.302
4.5001	62.214
4.4962	62.150
4.4923	62.112
4.4884	62.096
4.4846	62.094
4.4807	62.100
4.4768	62.114
4.4730	62.145
4.4691	62.204
4.4652	62.305
4.4614	62.453
4.4576	62.646
4.4537	62.872
4.4499	63.114
4.4461	63.360
4.4423	63.602
4.4385	63.840
4.4347	64.078
4.4309	64.324
4.4271	64.581
4.4233	64.851
4.4196	65.131
4.4158	65.417
4.4120	65.708
4.4083	66.002
4.4045	66.297
4.4008	66.595
4.3971	66.895
4.3934	67.195
4.3896	67.493
4.3859	67.785
4.3822	68.071
4.3785	68.347
4.3748	68.613
4.3711	68.864
4.3674	69.099
4.3638	69.311
4.3601	69.496
4.3564	69.652
4.3528	69.778
4.3491	69.875
4.3455	69.947
4.3418	70.001
4.3382	70.041
4.3346	70.074
4.3310	70.102
4.3273	70.125
4.3237	70.142
4.3201	70.148
4.3165	70.142
4.3129	70.124
4.3094	70.097
4.3058	70.068
4.3022	70.041
4.2986	70.021
4.2951	70.012
4.2915	70.013
4.2880	70.027
4.2844	70.054
4.2809	70.096
4.2774	70.153
4.2738	70.226
4.2703	70.313
4.2668	70.410
4.2633	70.508
4.2598	70.600
4.2563	70.679
4.2528	70.739
4.2493	70.780
4.2458	70.806
4.2424	70.823
4.2389	70.838
4.2354	70.854
4.2320	70.875
4.2285	70.902
4.2251	70.934
4.2216	70.970
4.2182	71.010
4.2148	71.052
4.2113	71.094
4.2079	71.133
4.2045	71.168
4.2011	71.198
4.1977	71.225
4.1943	71.252
4.1909	71.282
4.1875	71.318
4.1841	71.359
4.1808	71.403
4.1774	71.445
4.1740	71.481
4.1707	71.509
4.1673	71.528
4.1640	71.539
4.1606	71.546
4.1573	71.553
4.1540	71.562
4.1506	71.575
4.1473	71.594
4.1440	71.620
4.1407	71.652
4.1374	71.689
4.1341	71.730
4.1308	71.773
4.1275	71.815
4.1242	71.852
4.1209	71.884
4.1177	71.910
4.1144	71.928
4.1111	71.939
4.1079	71.942
4.1046	71.938
4.1014	71.929
4.0981	71.915
4.0949	71.896
4.0917	71.871
4.0884	71.840
4.0852	71.800
4.0820	71.751
4.0788	71.692
4.0756	71.624
4.0724	71.548
4.0692	71.460
4.0660	71.358
4.0628	71.240
4.0596	71.105
4.0565	70.951
4.0533	70.778
4.0501	70.588
4.0470	70.381
4.0438	70.152
4.0406	69.899
4.0375	69.619
4.0344	69.308
4.0312	68.963
4.0281	68.579
4.0250	68.154
4.0218	67.684
4.0187	67.166
4.0156	66.598
4.0125	65.979
4.0094	65.313
4.0063	64.601
4.0032	63.844
4.0001	63.045
3.9970	62.200
3.9940	61.308
3.9909	60.374
3.9878	59.407
3.9847	58.432
3.9817	57.486
3.9786	56.613
3.9756	55.854
3.9725	55.241
3.9695	54.790
3.9665	54.498
3.9634	54.346
3.9604	54.305
3.9574	54.346
3.9544	54.442
3.9513	54.574
3.9483	54.729
3.9453	54.902
3.9423	55.090
3.9393	55.290
3.9363	55.496
3.9333	55.708
3.9304	55.924
3.9274	56.150
3.9244	56.398
3.9214	56.687
3.9185	57.035
3.9155	57.452
3.9126	57.937
3.9096	58.471
3.9067	59.019
3.9037	59.539
3.9008	59.994
3.8979	60.360
3.8949	60.632
3.8920	60.823
3.8891	60.961
3.8862	61.075
3.8833	61.191
3.8804	61.325
3.8775	61.486
3.8746	61.685
3.8717	61.933
3.8688	62.247
3.8659	62.647
3.8630	63.146
3.8601	63.735
3.8573	64.386
3.8544	65.045
3.8515	65.647
3.8487	66.130
3.8458	66.449
3.8430	66.585
3.8401	66.546
3.8373	66.358
3.8344	66.056
3.8316	65.673
3.8288	65.238
3.8259	64.772
3.8231	64.291
3.8203	63.813
3.8175	63.361
3.8147	62.965
3.8119	62.658
3.8091	62.469
3.8063	62.421
3.8035	62.519
3.8007	62.754
3.7979	63.101
3.7951	63.528
3.7924	64.003
3.7896	64.500
3.7868	64.999
3.7841	65.489
3.7813	65.962
3.7785	66.415
3.7758	66.847
3.7730	67.257
3.7703	67.650
3.7676	68.030
3.7648	68.402
3.7621	68.769
3.7594	69.130
3.7566	69.481
3.7539	69.814
3.7512	70.120
3.7485	70.390
3.7458	70.618
3.7431	70.801
3.7404	70.943
3.7377	71.046
3.7350	71.117
3.7323	71.162
3.7296	71.187
3.7269	71.198
3.7242	71.202
3.7216	71.204
3.7189	71.208
3.7162	71.216
3.7136	71.225
3.7109	71.235
3.7083	71.246
3.7056	71.257
3.7030	71.271
3.7003	71.288
3.6977	71.308
3.6950	71.331
3.6924	71.352
3.6898	71.369
3.6872	71.383
3.6845	71.394
3.6819	71.403
3.6793	71.412
3.6767	71.425
3.6741	71.440
3.6715	71.457
3.6689	71.473
3.6663	71.487
3.6637	71.496
3.6611	71.502
3.6585	71.507
3.6560	71.513
3.6534	71.523
3.6508	71.537
3.6482	71.554
3.6457	71.571
3.6431	71.582
3.6406	71.586
3.6380	71.584
3.6355	71.575
3.6329	71.561
3.6304	71.543
3.6278	71.522
3.6253	71.497
3.6227	71.466
3.6202	71.431
3.6177	71.392
3.6152	71.349
3.6127	71.302
3.6101	71.253
3.6076	71.202
3.6051	71.148
3.6026	71.092
3.6001	71.034
3.5976	70.973
3.5951	70.908
3.5926	70.837
3.5901	70.761
3.5876	70.678
3.5852	70.592
3.5827	70.504
3.5802	70.414
3.5777	70.323
3.5753	70.228
3.5728	70.127
3.5704	70.017
3.5679	69.897
3.5654	69.764
3.5630	69.619
3.5605	69.465
3.5581	69.308
3.5557	69.156
3.5532	69.020
3.5508	68.905
3.5484	68.813
3.5459	68.738
3.5435	68.668
3.5411	68.592
3.5387	68.495
3.5363	68.370
3.5338	68.213
3.5314	68.026
3.5290	67.808
3.5266	67.559
3.5242	67.277
3.5218	66.961
3.5195	66.607
3.5171	66.211
3.5147	65.775
3.5123	65.301
3.5099	64.795
3.5075	64.266
3.5052	63.728
3.5028	63.194
3.5004	62.679
3.4981	62.194
3.4957	61.744
3.4934	61.334
3.4910	60.960
3.4887	60.616
3.4863	60.296
3.4840	59.991
3.4816	59.695
3.4793	59.404
3.4770	59.118
3.4746	58.840
3.4723	58.576
3.4700	58.331
3.4677	58.110
3.4653	57.914
3.4630	57.741
3.4607	57.593
3.4584	57.473
3.4561	57.388
3.4538	57.345
3.4515	57.354
3.4492	57.418
3.4469	57.541
3.4446	57.716
3.4423	57.937
3.4400	58.191
3.4378	58.459
3.4355	58.722
3.4332	58.960
3.4309	59.158
3.4287	59.303
3.4264	59.396
3.4241	59.444
3.4219	59.458
3.4196	59.451
3.4174	59.436
3.4151	59.422
3.4129	59.417
3.4106	59.426
3.4084	59.448
3.4061	59.484
3.4039	59.530
3.4017	59.583
3.3994	59.638
3.3972	59.692
3.3950	59.744
3.3928	59.796
3.3906	59.849
3.3883	59.903
3.3861	59.955
3.3839	59.999
3.3817	60.024
3.3795	60.019
3.3773	59.974
3.3751	59.888
3.3729	59.764
3.3707	59.611
3.3685	59.438
3.3663	59.256
3.3641	59.071
3.3620	58.885
3.3598	58.701
3.3576	58.517
3.3554	58.335
3.3533	58.158
3.3511	57.990
3.3489	57.836
3.3468	57.700
3.3446	57.587
3.3425	57.496
3.3403	57.425
3.3382	57.368
3.3360	57.318
3.3339	57.269
3.3317	57.210
3.3296	57.136
3.3274	57.037
3.3253	56.912
3.3232	56.761
3.3210	56.591
3.3189	56.413
3.3168	56.246
3.3147	56.114
3.3126	56.041
3.3104	56.052
3.3083	56.170
3.3062	56.405
3.3041	56.758
3.3020	57.212
3.2999	57.732
3.2978	58.275
3.2957	58.789
3.2936	59.234
3.2915	59.581
3.2894	59.825
3.2874	59.976
3.2853	60.056
3.2832	60.090
3.2811	60.099
3.2790	60.097
3.2770	60.093
3.2749	60.088
3.2728	60.080
3.2708	60.065
3.2687	60.042
3.2666	60.010
3.2646	59.966
3.2625	59.916
3.2605	59.863
3.2584	59.810
3.2564	59.757
3.2543	59.707
3.2523	59.656
3.2503	59.603
3.2482	59.548
3.2462	59.489
3.2442	59.429
3.2421	59.364
3.2401	59.298
3.2381	59.231
3.2361	59.162
3.2340	59.090
3.2320	59.014
3.2300	58.936
3.2280	58.856
3.2260	58.775
3.2240	58.695
3.2220	58.617
3.2200	58.539
3.2180	58.459
3.2160	58.376
3.2140	58.291
3.2120	58.205
3.2100	58.119
3.2080	58.033
3.2060	57.948
3.2041	57.862
3.2021	57.773
3.2001	57.681
3.1981	57.587
3.1961	57.494
3.1942	57.404
3.1922	57.319
3.1902	57.237
3.1883	57.157
3.1863	57.074
3.1844	56.985
3.1824	56.892
3.1805	56.797
3.1785	56.704
3.1766	56.615
3.1746	56.531
3.1727	56.450
3.1707	56.369
3.1688	56.288
3.1669	56.205
3.1649	56.119
3.1630	56.030
3.1611	55.934
3.1591	55.831
3.1572	55.722
3.1553	55.609
3.1534	55.498
3.1515	55.393
3.1495	55.296
3.1476	55.206
3.1457	55.118
3.1438	55.028
3.1419	54.933
3.1400	54.834
3.1381	54.732
3.1362	54.629
3.1343	54.526
3.1324	54.425
3.1305	54.327
3.1286	54.233
3.1268	54.142
3.1249	54.054
3.1230	53.965
3.1211	53.873
3.1192	53.774
3.1174	53.669
3.1155	53.559
3.1136	53.449
3.1117	53.341
3.1099	53.236
3.1080	53.135
3.1061	53.036
3.1043	52.936
3.1024	52.835
3.1006	52.733
3.0987	52.631
3.0969	52.527
3.0950	52.423
3.0932	52.317
3.0913	52.211
3.0895	52.106
3.0876	52.004
3.0858	51.906
3.0840	51.811
3.0821	51.718
3.0803	51.625
3.0785	51.531
3.0766	51.435
3.0748	51.340
3.0730	51.244
3.0712	51.151
3.0694	51.061
3.0675	50.972
3.0657	50.887
3.0639	50.802
3.0621	50.718
3.0603	50.633
3.0585	50.546
3.0567	50.456
3.0549	50.361
3.0531	50.265
3.0513	50.168
3.0495	50.076
3.0477	49.990
3.0459	49.912
3.0441	49.842
3.0423	49.777
3.0406	49.713
3.0388	49.648
3.0370	49.582
3.0352	49.513
3.0334	49.442
3.0317	49.371
3.0299	49.301
3.0281	49.233
3.0264	49.168
3.0246	49.109
3.0228	49.055
3.0211	49.003
3.0193	48.951
3.0176	48.895
3.0158	48.832
3.0140	48.762
3.0123	48.685
3.0105	48.605
3.0088	48.526
3.0070	48.452
3.0053	48.383
3.0036	48.323
3.0018	48.269
3.0001	48.220
2.9984	48.172
2.9966	48.122
2.9949	48.068
2.9932	48.008
2.9914	47.943
2.9897	47.874
2.9880	47.803
2.9863	47.734
2.9845	47.668
2.9828	47.604
2.9811	47.541
2.9794	47.477
2.9777	47.410
2.9760	47.340
2.9743	47.269
2.9726	47.197
2.9709	47.124
2.9692	47.049
2.9675	46.973
2.9658	46.897
2.9641	46.820
2.9624	46.743
2.9607	46.664
2.9590	46.584
2.9573	46.501
2.9556	46.414
2.9539	46.327
2.9523	46.240
2.9506	46.155
2.9489	46.074
2.9472	45.995
2.9455	45.921
2.9439	45.849
2.9422	45.782
2.9405	45.717
2.9389	45.655
2.9372	45.596
2.9355	45.540
2.9339	45.487
2.9322	45.436
2.9306	45.388
2.9289	45.346
2.9272	45.310
2.9256	45.281
2.9239	45.260
2.9223	45.246
2.9207	45.237
2.9190	45.232
2.9174	45.232
2.9157	45.240
2.9141	45.259
2.9124	45.288
2.9108	45.326
2.9092	45.373
2.9075	45.425
2.9059	45.477
2.9043	45.531
2.9027	45.589
2.9010	45.651
2.8994	45.717
2.8978	45.786
2.8962	45.854
2.8946	45.917
2.8929	45.974
2.8913	46.025
2.8897	46.073
2.8881	46.122
2.8865	46.174
2.8849	46.225
2.8833	46.273
2.8817	46.314
2.8801	46.346
2.8785	46.368
2.8769	46.382
2.8753	46.389
2.8737	46.390
2.8721	46.386
2.8705	46.375
2.8689	46.357
2.8673	46.333
2.8658	46.302
2.8642	46.261
2.8626	46.207
2.8610	46.140
2.8594	46.056
2.8579	45.955
2.8563	45.837
2.8547	45.706
2.8531	45.561
2.8516	45.400
2.8500	45.221
2.8484	45.019
2.8469	44.786
2.8453	44.514
2.8437	44.195
2.8422	43.821
2.8406	43.385
2.8391	42.879
2.8375	42.299
2.8360	41.644
2.8344	40.911
2.8329	40.100
2.8313	39.210
2.8298	38.243
2.8282	37.202
2.8267	36.095
2.8252	34.931
2.8236	33.721
2.8221	32.474
2.8205	31.197
2.8190	29.896
2.8175	28.574
2.8159	27.236
2.8144	25.891
2.8129	24.547
2.8114	23.216
2.8098	21.910
2.8083	20.640
2.8068	19.415
2.8053	18.247
2.8038	17.142
2.8022	16.106
2.8007	15.142
2.7992	14.250
2.7977	13.424
2.7962	12.658
2.7947	11.950
2.7932	11.294
2.7917	10.690
2.7902	10.136
2.7887	9.6341
2.7872	9.1811
2.7857	8.7740
2.7842	8.4079
2.7827	8.0780
2.7812	7.7794
2.7797	7.5075
2.7782	7.2598
2.7767	7.0341
2.7752	6.8293
2.7738	6.6453
2.7723	6.4831
2.7708	6.3445
2.7693	6.2320
2.7678	6.1475
2.7664	6.0918
2.7649	6.0651
2.7634	6.0667
2.7619	6.0982
2.7605	6.1605
2.7590	6.2562
2.7575	6.3886
2.7561	6.5586
2.7546	6.7668
2.7531	7.0131
2.7517	7.2961
2.7502	7.6158
2.7488	7.9729
2.7473	8.3707
2.7458	8.8148
2.7444	9.3135
2.7429	9.8792
2.7415	10.528
2.7400	11.273
2.7386	12.131
2.7371	13.118
2.7357	14.248
2.7343	15.536
2.7328	16.995
2.7314	18.630
2.7299	20.438
2.7285	22.405
2.7271	24.512
2.7256	26.739
2.7242	29.068
2.7228	31.487
2.7213	33.973
2.7199	36.496
2.7185	39.015
2.7171	41.481
2.7156	43.855
2.7142	46.112
2.7128	48.244
2.7114	50.254
2.7100	52.135
2.7085	53.867
2.7071	55.423
2.7057	56.773
2.7043	57.900
2.7029	58.811
2.7015	59.539
2.7001	60.132
2.6987	60.644
2.6973	61.126
2.6959	61.627
2.6945	62.171
2.6931	62.763
2.6917	63.390
2.6903	64.027
2.6889	64.646
2.6875	65.220
2.6861	65.739
2.6847	66.203
2.6833	66.624
2.6819	67.013
2.6805	67.384
2.6791	67.754
2.6778	68.133
2.6764	68.513
2.6750	68.873
2.6736	69.199
2.6722	69.490
2.6709	69.751
2.6695	70.005
2.6681	70.286
2.6667	70.622
2.6654	71.012
2.6640	71.423
2.6626	71.824
2.6613	72.185
2.6599	72.477
2.6585	72.693
2.6572	72.847
2.6558	72.968
2.6545	73.076
2.6531	73.184
2.6517	73.297
2.6504	73.409
2.6490	73.506
2.6477	73.580
2.6463	73.629
2.6450	73.659
2.6436	73.683
2.6423	73.710
2.6409	73.737
2.6396	73.756
2.6382	73.752
2.6369	73.714
2.6356	73.633
2.6342	73.513
2.6329	73.382
2.6315	73.268
2.6302	73.194
2.6289	73.173
2.6275	73.197
2.6262	73.242
2.6249	73.267
2.6236	73.245
2.6222	73.183
2.6209	73.094
2.6196	73.006
2.6183	72.954
2.6169	72.954
2.6156	72.996
2.6143	73.048
2.6130	73.079
2.6117	73.073
2.6103	73.015
2.6090	72.918
2.6077	72.827
2.6064	72.785
2.6051	72.813
2.6038	72.903
2.6025	73.021
2.6012	73.114
2.5999	73.133
2.5986	73.063
2.5973	72.950
2.5960	72.869
2.5947	72.877
2.5934	72.994
2.5921	73.198
2.5908	73.429
2.5895	73.622
2.5882	73.736
2.5869	73.784
2.5856	73.813
2.5843	73.863
2.5830	73.957
2.5817	74.092
2.5805	74.246
2.5792	74.391
2.5779	74.500
2.5766	74.571
2.5753	74.626
2.5741	74.682
2.5728	74.756
2.5715	74.855
2.5702	74.971
2.5690	75.084
2.5677	75.170
2.5664	75.220
2.5651	75.243
2.5639	75.259
2.5626	75.292
2.5613	75.358
2.5601	75.456
2.5588	75.567
2.5575	75.665
2.5563	75.730
2.5550	75.756
2.5538	75.751
2.5525	75.731
2.5513	75.708
2.5500	75.689
2.5487	75.673
2.5475	75.653
2.5462	75.625
2.5450	75.588
2.5437	75.548
2.5425	75.507
2.5413	75.464
2.5400	75.418
2.5388	75.366
2.5375	75.304
2.5363	75.231
2.5350	75.152
2.5338	75.077
2.5326	75.012
2.5313	74.959
2.5301	74.914
2.5289	74.872
2.5276	74.826
2.5264	74.771
2.5252	74.705
2.5239	74.636
2.5227	74.568
2.5215	74.506
2.5202	74.448
2.5190	74.396
2.5178	74.349
2.5166	74.301
2.5154	74.254
2.5141	74.208
2.5129	74.165
2.5117	74.122
2.5105	74.079
2.5093	74.038
2.5081	73.996
2.5068	73.952
2.5056	73.906
2.5044	73.857
2.5032	73.804
2.5020	73.746
2.5008	73.684
2.4996	73.622
2.4984	73.563
2.4972	73.509
2.4960	73.461
2.4948	73.416
2.4936	73.371
2.4924	73.322
2.4912	73.264
2.4900	73.196
2.4888	73.119
2.4876	73.034
2.4864	72.943
2.4852	72.854
2.4840	72.767
2.4828	72.685
2.4816	72.606
2.4805	72.527
2.4793	72.441
2.4781	72.345
2.4769	72.239
2.4757	72.128
2.4745	72.016
2.4734	71.909
2.4722	71.809
2.4710	71.714
2.4698	71.622
2.4686	71.530
2.4675	71.437
2.4663	71.345
2.4651	71.253
2.4640	71.165
2.4628	71.081
2.4616	71.004
2.4604	70.931
2.4593	70.864
2.4581	70.805
2.4569	70.754
2.4558	70.709
2.4546	70.672
2.4535	70.644
2.4523	70.622
2.4511	70.604
2.4500	70.592
2.4488	70.587
2.4477	70.589
2.4465	70.600
2.4454	70.621
2.4442	70.655
2.4431	70.700
2.4419	70.755
2.4408	70.819
2.4396	70.891
2.4385	70.971
2.4373	71.057
2.4362	71.151
2.4350	71.252
2.4339	71.357
2.4327	71.463
2.4316	71.567
2.4305	71.667
2.4293	71.760
2.4282	71.846
2.4270	71.929
2.4259	72.012
2.4248	72.095
2.4236	72.179
2.4225	72.263
2.4214	72.343
2.4202	72.417
2.4191	72.481
2.4180	72.536
2.4169	72.584
2.4157	72.625
2.4146	72.662
2.4135	72.699
2.4124	72.736
2.4112	72.773
2.4101	72.809
2.4090	72.843
2.4079	72.874
2.4068	72.899
2.4056	72.917
2.4045	72.926
2.4034	72.925
2.4023	72.913
2.4012	72.890
2.4001	72.858
2.3990	72.816
2.3979	72.766
2.3967	72.705
2.3956	72.633
2.3945	72.548
2.3934	72.453
2.3923	72.352
2.3912	72.249
2.3901	72.146
2.3890	72.048
2.3879	71.955
2.3868	71.866
2.3857	71.777
2.3846	71.691
2.3835	71.606
2.3824	71.523
2.3813	71.446
2.3802	71.379
2.3791	71.325
2.3781	71.280
2.3770	71.241
2.3759	71.201
2.3748	71.158
2.3737	71.109
2.3726	71.057
2.3715	71.007
2.3704	70.961
2.3694	70.917
2.3683	70.868
2.3672	70.808
2.3661	70.732
2.3650	70.639
2.3640	70.533
2.3629	70.424
2.3618	70.320
2.3607	70.225
2.3597	70.143
2.3586	70.077
2.3575	70.025
2.3564	69.989
2.3554	69.967
2.3543	69.959
2.3532	69.963
2.3522	69.978
2.3511	70.005
2.3500	70.049
2.3490	70.113
2.3479	70.202
2.3468	70.316
2.3458	70.451
2.3447	70.604
2.3436	70.770
2.3426	70.950
2.3415	71.141
2.3405	71.347
2.3394	71.567
2.3384	71.797
2.3373	72.034
2.3363	72.276
2.3352	72.522
2.3342	72.774
2.3331	73.032
2.3321	73.297
2.3310	73.566
2.3300	73.838
2.3289	74.108
2.3279	74.378
2.3268	74.646
2.3258	74.915
2.3247	75.186
2.3237	75.461
2.3226	75.740
2.3216	76.021
2.3206	76.301
2.3195	76.574
2.3185	76.835
2.3175	77.082
2.3164	77.315
2.3154	77.540
2.3144	77.763
2.3133	77.989
2.3123	78.219
2.3113	78.448
2.3102	78.668
2.3092	78.871
2.3082	79.054
2.3071	79.217
2.3061	79.362
2.3051	79.492
2.3041	79.611
2.3030	79.721
2.3020	79.822
2.3010	79.914
2.3000	79.995
2.2990	80.068
2.2979	80.130
2.2969	80.180
2.2959	80.217
2.2949	80.244
2.2939	80.263
2.2929	80.274
2.2918	80.281
2.2908	80.287
2.2898	80.293
2.2888	80.301
2.2878	80.309
2.2868	80.316
2.2858	80.320
2.2848	80.317
2.2838	80.306
2.2828	80.286
2.2818	80.261
2.2808	80.236
2.2798	80.211
2.2787	80.187
2.2777	80.164
2.2767	80.136
2.2757	80.095
2.2747	80.035
2.2738	79.950
2.2728	79.838
2.2718	79.697
2.2708	79.530
2.2698	79.339
2.2688	79.126
2.2678	78.892
2.2668	78.636
2.2658	78.357
2.2648	78.051
2.2638	77.719
2.2628	77.363
2.2618	76.983
2.2609	76.586
2.2599	76.176
2.2589	75.766
2.2579	75.362
2.2569	74.976
2.2559	74.614
2.2550	74.281
2.2540	73.977
2.2530	73.699
2.2520	73.451
2.2510	73.231
2.2501	73.044
2.2491	72.889
2.2481	72.768
2.2471	72.677
2.2462	72.606
2.2452	72.549
2.2442	72.498
2.2433	72.449
2.2423	72.397
2.2413	72.339
2.2403	72.270
2.2394	72.189
2.2384	72.091
2.2374	71.973
2.2365	71.836
2.2355	71.677
2.2345	71.495
2.2336	71.284
2.2326	71.039
2.2317	70.760
2.2307	70.446
2.2297	70.103
2.2288	69.743
2.2278	69.381
2.2269	69.026
2.2259	68.688
2.2250	68.376
2.2240	68.096
2.2231	67.855
2.2221	67.662
2.2211	67.523
2.2202	67.446
2.2192	67.431
2.2183	67.476
2.2173	67.577
2.2164	67.729
2.2155	67.925
2.2145	68.165
2.2136	68.447
2.2126	68.773
2.2117	69.139
2.2107	69.541
2.2098	69.974
2.2088	70.428
2.2079	70.895
2.2070	71.374
2.2060	71.866
2.2051	72.369
2.2041	72.886
2.2032	73.416
2.2023	73.959
2.2013	74.507
2.2004	75.057
2.1995	75.603
2.1985	76.137
2.1976	76.654
2.1967	77.153
2.1957	77.637
2.1948	78.107
2.1939	78.564
2.1930	79.010
2.1920	79.442
2.1911	79.856
2.1902	80.249
2.1893	80.619
2.1883	80.967
2.1874	81.289
2.1865	81.583
2.1856	81.851
2.1846	82.098
2.1837	82.328
2.1828	82.544
2.1819	82.753
2.1810	82.960
2.1800	83.160
2.1791	83.348
2.1782	83.521
2.1773	83.675
2.1764	83.812
2.1755	83.935
2.1746	84.052
2.1736	84.171
2.1727	84.295
2.1718	84.421
2.1709	84.540
2.1700	84.646
2.1691	84.739
2.1682	84.817
2.1673	84.886
2.1664	84.954
2.1655	85.024
2.1646	85.093
2.1637	85.156
2.1628	85.211
2.1619	85.260
2.1610	85.306
2.1601	85.350
2.1592	85.398
2.1583	85.449
2.1574	85.499
2.1565	85.547
2.1556	85.589
2.1547	85.626
2.1538	85.659
2.1529	85.687
2.1520	85.714
2.1511	85.740
2.1502	85.766
2.1493	85.794
2.1484	85.824
2.1475	85.851
2.1466	85.872
2.1458	85.882
2.1449	85.878
2.1440	85.861
2.1431	85.838
2.1422	85.814
2.1413	85.797
2.1404	85.789
2.1396	85.788
2.1387	85.789
2.1378	85.789
2.1369	85.783
2.1360	85.772
2.1352	85.756
2.1343	85.741
2.1334	85.729
2.1325	85.720
2.1316	85.716
2.1308	85.714
2.1299	85.714
2.1290	85.714
2.1281	85.715
2.1273	85.722
2.1264	85.736
2.1255	85.760
2.1247	85.792
2.1238	85.828
2.1229	85.865
2.1220	85.898
2.1212	85.926
2.1203	85.956
2.1194	85.992
2.1186	86.039
2.1177	86.099
2.1168	86.169
2.1160	86.242
2.1151	86.313
2.1143	86.380
2.1134	86.437
2.1125	86.484
2.1117	86.526
2.1108	86.569
2.1100	86.619
2.1091	86.679
2.1082	86.752
2.1074	86.834
2.1065	86.917
2.1057	86.994
2.1048	87.063
2.1040	87.128
2.1031	87.190
2.1023	87.251
2.1014	87.314
2.1005	87.382
2.0997	87.452
2.0988	87.523
2.0980	87.596
2.0971	87.669
2.0963	87.737
2.0955	87.799
2.0946	87.857
2.0938	87.917
2.0929	87.979
2.0921	88.045
2.0912	88.115
2.0904	88.186
2.0895	88.250
2.0887	88.303
2.0879	88.343
2.0870	88.372
2.0862	88.394
2.0853	88.418
2.0845	88.451
2.0837	88.504
2.0828	88.565
2.0820	88.622
2.0812	88.681
2.0803	88.666
2.0795	88.622
2.0760	88.622
2.0720	89.022
2.0680	89.451
2.0640	89.394
2.0600	89.294
2.0560	89.592
2.0520	89.499
2.0480	89.177
2.0440	89.177
2.0400	89.054
2.0360	88.975
2.0320	89.067
2.0280	89.208
2.0240	88.342
2.0200	88.578
2.0160	88.303
2.0120	88.119
2.0080	87.728
2.0040	87.664
2.0000	87.950
1.9960	87.386
1.9920	87.109
1.9880	86.537
1.9840	86.279
1.9800	86.004
1.9760	86.337
1.9720	86.351
1.9680	86.275
1.9640	86.442
1.9600	86.214
1.9560	85.883
1.9520	86.293
1.9480	86.203
1.9440	85.855
1.9400	85.493
1.9360	85.115
1.9320	85.128
1.9280	85.400
1.9240	85.644
1.9200	85.521
1.9160	85.521
1.9120	85.199
1.9080	85.860
1.9040	86.259
1.9000	86.948
1.8960	87.777
1.8920	87.827
1.8880	86.845
1.8840	86.194
1.8800	85.672
1.8760	85.643
1.8720	85.272
1.8680	85.181
1.8640	86.337
1.8600	87.664
1.8560	88.441
1.8520	88.832
1.8480	87.883
1.8440	86.697
1.8400	86.311
1.8360	86.800
1.8320	87.569
1.8280	87.876
1.8240	87.898
1.8200	87.302
1.8160	86.761
1.8120	86.241
1.8080	86.477
1.8040	87.041
1.8000	86.389
1.7960	85.947
1.7920	86.050
1.7880	85.770
1.7840	86.079
1.7800	86.315
1.7760	85.771
1.7720	85.830
1.7680	85.653
1.7640	85.256
1.7600	85.183
1.7560	85.198
1.7520	84.934
1.7480	84.892
1.7440	85.316
1.7400	85.771
1.7360	85.359
1.7320	85.417
1.7280	85.638
1.7240	85.978
1.7200	86.304
1.7160	86.720
1.7120	86.392
1.7080	85.682
1.7040	85.653
1.7000	85.432
1.6960	85.712
1.6920	85.609
1.6880	85.609
1.6840	85.619
1.6800	85.432
1.6760	85.183
1.6720	85.022
1.6680	84.964
1.6640	85.032
1.6600	85.309
1.6560	84.680
1.6520	84.752
1.6480	84.535
1.6440	84.535
1.6400	84.810
1.6360	84.664
1.6320	84.680
1.6280	85.383
1.6240	84.810
1.6200	84.504
1.6160	84.359
1.6120	83.975
1.6080	83.887
1.6040	84.063
1.6000	83.568
1.5960	83.392
1.5920	84.071
1.5880	84.038
1.5840	83.966
1.5800	83.982
1.5760	84.248
1.5720	83.766
1.5680	83.766
1.5640	83.750
1.5600	83.115
1.5560	83.392
1.5520	83.539
1.5480	83.855
1.5440	83.451
1.5400	83.166
1.5360	82.691
1.5320	82.761
1.5280	82.603
1.5240	82.585
1.5200	82.761
1.5160	83.027
1.5120	82.656
1.5080	82.288
1.5040	81.417
1.5000	81.182
1.4960	81.618
1.4920	82.039
1.4880	83.000
1.4840	81.926
1.4800	81.952
1.4760	81.952
1.4720	81.882
1.4680	81.742
1.4640	81.665
1.4600	81.215
1.4560	81.068
1.4520	80.755
1.4480	80.648
1.4440	80.024
1.4400	79.288
1.4360	78.589
1.4320	78.011
1.4280	77.059
1.4240	75.742
1.4200	74.099
1.4160	72.236
1.4120	70.454
1.4080	69.347
1.4040	69.380
1.4000	70.749
1.3960	73.000
1.3920	74.994
1.3880	76.627
1.3840	77.547
1.3800	78.240
1.3760	78.777
1.3720	80.308
1.3680	80.669
1.3640	79.679
1.3600	79.546
1.3560	79.996
1.3520	79.991
1.3480	80.746
1.3440	80.824
1.3400	79.546
1.3360	78.370
1.3320	77.497
1.3280	77.323
1.3240	77.649
1.3200	78.044
1.3160	78.177
1.3120	77.848
1.3080	77.650
1.3040	77.432
1.3000	77.214
1.2960	77.040
1.2920	76.973
1.2880	76.754
1.2840	76.404
1.2800	76.224
1.2760	76.196
1.2720	76.080
1.2680	75.920
1.2640	76.290
1.2600	76.139
1.2560	76.597
1.2520	76.739
1.2480	76.759
1.2440	76.759
1.2400	77.164
1.2360	77.298
1.2320	77.261
1.2280	76.139
1.2240	75.684
1.2200	75.749
1.2160	76.026
1.2120	76.227
1.2080	76.717
1.2040	76.828
1.2000	75.882
1.1960	74.910
1.1920	74.503
1.1880	74.464
1.1840	74.275
1.1800	74.149
1.1760	74.024
1.1720	73.899
1.1680	73.684
1.1640	73.211
1.1600	73.101
1.1560	73.036
1.1520	72.809
1.1480	72.968
1.1440	73.261
1.1400	73.761
1.1360	73.965
1.1320	73.480
1.1280	73.391
1.1240	73.543
1.1200	73.922
1.1160	74.203
1.1120	73.480
1.1080	73.417
1.1040	72.998
1.1000	72.705
1.0960	72.945
1.0920	73.643
1.0880	73.311
1.0840	73.249
1.0800	72.884
1.0760	73.071
1.0720	73.061
1.0680	73.311
1.0640	72.733
1.0600	72.735
1.0560	72.558
1.0520	72.636
1.0480	72.760
1.0440	72.347
1.0400	72.258
1.0360	72.293
1.0320	72.351
1.0280	72.459
1.0240	72.167
1.0200	72.238
1.0160	72.628
1.0120	72.742
1.0080	72.459
1.0040	71.949
1.0000	71.800
0.99600	72.194
0.99200	72.644
0.98800	72.167
0.98400	71.983
0.98000	71.470
0.97600	71.597
0.97200	71.657
0.96800	71.542
0.96400	71.305
0.96000	71.365
0.95600	71.575
0.95200	71.355
0.94800	71.261
0.94400	71.211
0.94000	71.355
0.93600	71.355
0.93200	71.443
0.92800	70.997
0.92400	71.141
0.92000	71.173
0.91600	71.322
0.91200	70.954
0.90800	71.098
0.90400	70.959
0.90000	71.019
0.89600	70.987
0.89200	70.782
0.88800	70.782
0.88400	70.998
0.88000	71.125
0.87600	70.975
0.87200	71.036
0.86800	71.163
0.86400	71.229
0.86000	71.371
0.85600	71.309
0.85200	71.494
0.84800	71.229
0.84400	71.488
0.84000	71.531
0.83600	71.556
0.83200	71.772
0.82800	71.861
0.82400	72.023
0.82000	71.776
0.81600	72.035
0.81200	72.213
0.80800	72.153
0.80400	71.988
0.80000	72.069
0.79900	72.069
0.79800	72.069
0.79700	72.200
0.79600	71.744
0.79500	71.877
0.79400	71.812
0.79300	71.656
0.79200	71.784
0.79100	71.784
0.79000	71.976
0.78900	71.298
0.78800	71.333
0.78700	71.909
0.78600	71.877
0.78500	71.877
0.78400	71.683
0.78300	71.458
0.78200	71.619
0.78100	71.777
0.78000	71.873
0.77900	72.035
0.77800	71.458
0.77700	71.233
0.77600	71.009
0.77500	71.256
0.77400	71.135
0.77300	71.233
0.77200	71.100
0.77100	71.297
0.77000	71.393
0.76900	71.390
0.76800	71.102
0.76700	71.487
0.76600	71.577
0.76500	71.100
0.76400	70.971
0.76300	70.810
0.76200	70.461
0.76100	70.679
0.76000	70.747
0.75900	70.874
0.75800	70.841
0.75700	70.711
0.75600	70.584
0.75500	70.714
0.75400	70.971
0.75300	70.841
0.75200	70.327
0.75100	70.167
0.75000	70.230
0.74900	70.327
0.74800	70.138
0.74700	70.738
0.74600	70.353
0.74500	70.127
0.74400	70.350
0.74300	70.514
0.74200	70.324
0.74100	70.444
0.74000	70.508
0.73900	70.030
0.73800	69.934
0.73700	69.997
0.73600	69.644
0.73500	69.837
0.73400	70.003
0.73300	70.060
0.73200	70.377
0.73100	70.250
0.73000	70.026
0.72900	69.925
0.72800	69.576
0.72700	69.638
0.72600	69.016
0.72500	69.735
0.72400	69.735
0.72300	69.167
0.72200	69.264
0.72100	69.479
0.72000	69.188
0.71900	68.995
0.71800	69.439
0.71700	69.182
0.71600	68.807
0.71500	69.279
0.71400	69.524
0.71300	69.461
0.71200	69.110
0.71100	68.519
0.71000	68.422
0.70900	68.274
0.70800	68.091
0.70700	68.960
0.70600	68.852
0.70500	68.712
0.70400	68.712
0.70300	68.305
0.70200	68.490
0.70100	68.718
0.70000	68.655
0.69900	68.734
0.69800	69.708
0.69700	69.614
0.69600	69.429
0.69500	69.033
0.69400	68.703
0.69300	68.221
0.69200	68.420
0.69100	68.711
0.69000	67.848
0.68900	68.165
0.68800	68.175
0.68700	68.211
0.68600	68.511
0.68500	68.703
0.68400	68.575
0.68300	68.302
0.68200	68.494
0.68100	68.466
0.68000	67.875
0.67900	67.386
0.67800	67.386
0.67700	68.018
0.67600	67.790
0.67500	67.801
0.67400	67.663
0.67300	67.700
0.67200	67.186
0.67100	67.663
0.67000	67.701
0.66900	67.211
0.66800	67.615
0.66700	67.640
0.66600	67.917
0.66500	67.701
0.66400	67.174
0.66300	67.224
0.66200	67.679
0.66100	67.514
0.66000	66.822
0.65900	67.211
0.65800	67.301
0.65700	67.288
0.65600	67.263
0.65500	66.910
0.65400	67.162
0.65300	67.200
0.65200	67.591
0.65100	67.350
0.65000	66.958
0.64900	66.809
0.64800	66.607
0.64700	66.795
0.64600	66.757
0.64500	66.593
0.64400	66.405
0.64300	66.506
0.64200	66.631
0.64100	66.757
0.64000	66.757
0.63900	66.656
0.63800	66.351
0.63700	66.328
0.63600	66.468
0.63500	66.506
0.63400	66.468
0.63300	66.064
0.63200	66.025
0.63100	65.700
0.63000	65.970
0.62900	65.767
0.62800	66.071
0.62700	65.885
0.62600	65.986
0.62500	66.188
0.62400	65.846
0.62300	65.790
0.62200	65.790
0.62100	65.728
0.62000	65.688
0.61900	65.790
0.61800	65.649
0.61700	65.220
0.61600	65.057
0.61500	65.036
0.61400	65.137
0.61300	64.914
0.61200	64.874
0.61100	64.773
0.61000	64.874
0.60900	64.874
0.60800	64.975
0.60700	65.036
0.60600	65.159
0.60500	65.119
0.60400	64.916
0.60300	64.528
0.60200	64.774
0.60100	64.714
0.60000	64.325
0.59900	63.957
0.59800	63.996
0.59700	64.323
0.59600	64.467
0.59500	64.445
0.59400	64.322
0.59300	64.487
0.59200	63.951
0.59100	63.848
0.59000	63.768
0.58900	64.115
0.58800	64.177
0.58700	64.260
0.58600	63.951
0.58500	63.665
0.58400	63.744
0.58300	64.135
0.58200	63.562
0.58100	63.867
0.58000	63.951
0.57900	64.177
0.57800	63.848
0.57700	63.848
0.57600	63.951
0.57500	63.848
0.57400	63.662
0.57300	63.795
0.57200	63.619
0.57100	63.536
0.57000	63.859
0.56900	63.799
0.56800	63.536
0.56700	63.435
0.56600	63.393
0.56500	63.088
0.56400	62.987
0.56300	62.826
0.56200	62.725
0.56100	62.843
0.56000	62.919
0.55900	60.602
0.55800	62.397
0.55700	62.132
0.55600	61.700
0.55500	61.286
0.55400	61.092
0.55300	61.050
0.55200	61.267
0.55100	61.308
0.55000	61.542
0.54900	62.207
0.54800	61.810
0.54700	61.612
0.54600	61.753
0.54500	61.500
0.54400	61.151
0.54300	61.527
0.54200	61.584
0.54100	61.924
0.54000	61.429
0.53900	61.119
0.53800	61.244
0.53700	61.098
0.53600	60.972
0.53500	61.271
0.53400	61.341
0.53300	61.116
0.53200	60.891
0.53100	60.749
0.53000	60.618
0.52900	60.675
0.52800	61.526
0.52700	61.457
0.52600	61.090
0.52500	61.314
0.52400	61.297
0.52300	60.540
0.52200	60.189
0.52100	60.200
0.52000	60.476
0.51900	60.555
0.51800	59.662
0.51700	59.904
0.51600	59.979
0.51500	59.695
0.51400	59.382
0.51300	59.893
0.51200	59.825
0.51100	59.400
0.51000	59.628
0.50900	59.835
0.50800	59.304
0.50700	59.106
0.50600	58.787
0.50500	58.909
0.50400	58.871
0.50300	58.746
0.50200	59.103
0.50100	59.106
0.50000	58.863
0.49900	58.970
0.49800	58.658
0.49700	58.871
0.49600	58.758
0.49500	59.215
0.49400	58.893
0.49300	57.986
0.49200	58.447
0.49100	58.462
0.49000	58.324
0.48900	58.062
0.48800	57.715
0.48700	57.709
0.48600	57.763
0.48500	57.566
0.48400	57.368
0.48300	57.477
0.48200	57.841
0.48100	57.534
0.48000	56.984
0.47900	56.931
0.47800	56.644
0.47700	56.447
0.47600	56.548
0.47500	56.497
0.47400	56.150
0.47300	56.001
0.47200	55.804
0.47100	55.806
0.47000	55.805
0.46900	55.462
0.46800	55.364
0.46700	55.266
0.46600	55.070
0.46500	54.922
0.46400	54.729
0.46300	54.967
0.46200	54.382
0.46100	54.135
0.46000	53.943
0.45900	54.251
0.45800	54.494
0.45700	53.977
0.45600	54.271
0.45500	53.865
0.45400	53.711
0.45300	52.866
0.45200	52.248
0.45100	52.381
0.45000	52.513
0.44900	52.056
0.44800	51.543
0.44700	51.490
0.44600	51.017
0.44500	50.686
0.44400	50.068
0.44300	49.900
0.44200	49.963
0.44100	49.884
0.44000	50.064
0.43900	49.585
0.43800	49.748
0.43700	49.973
0.43600	49.171
0.43500	48.962
0.43400	48.635
0.43300	48.722
0.43200	48.321
0.43100	48.324
0.43000	48.096
0.42900	48.145
0.42800	47.714
0.42700	47.596
0.42600	47.200
0.42500	46.757
0.42400	46.565
0.42300	46.357
0.42200	45.739
0.42100	45.374
0.42000	45.869
0.41900	45.374
0.41800	45.251
0.41700	44.835
0.41600	44.628
0.41500	44.524
0.41400	44.454
0.41300	43.635
0.41200	43.708
0.41100	43.576
0.41000	42.941
0.40900	42.659
0.40800	42.389
0.40700	42.082
0.40600	41.978
0.40500	41.697
0.40400	41.104
0.40300	41.108
0.40200	40.766
0.40100	40.417
0.40000	40.135
0.0000	
