Name: Travertine 
Type:  Rocks
Class:  Sedimentary
Subclass: Travertine 
Particle Size:  0 - 75 Micrometers
Sample No.:  travertine.1
Owner:  JHU
Wavelength Range:  All
Origin:  Sample No. 357,  The Hunt and Salisbury Collection at the U.S. 
Geological Survey, Denver, Co.
Description: A predominantly microcrystalline carbonate with vugs 
or pores often filled with larger carbonate crystals. These vugs are 
usually rimmed by hematitic material which also occurs as irregular 
bands throughout the sample.


Measurement:  Directional (10 Degree) Hemispherical Reflectance
First Column:  X
Second Column:  Y  
X Units:  Wavelength (micrometers)
Y Units:  Reflectance (percent)
First X Value: 14.9831
Last X Value:  0.4
Number of X Values: 2868
Additional Information:  None

14.983	17.677
14.983	17.921
14.940	18.276
14.897	18.645
14.854	18.942
14.812	19.104
14.770	19.136
14.728	19.137
14.686	19.122
14.645	19.040
14.603	18.895
14.562	18.728
14.521	18.499
14.481	18.141
14.441	17.629
14.400	16.933
14.361	15.944
14.321	14.560
14.281	12.763
14.242	10.616
14.203	8.2447
14.164	5.8489
14.126	3.6886
14.087	2.0629
14.049	1.2364
14.011	1.3728
13.973	2.5124
13.936	4.5537
13.899	7.2444
13.861	10.209
13.824	13.067
13.788	15.553
13.751	17.547
13.715	19.056
13.679	20.178
13.643	21.045
13.607	21.752
13.571	22.338
13.536	22.806
13.500	23.159
13.465	23.409
13.430	23.570
13.396	23.673
13.361	23.738
13.327	23.776
13.293	23.788
13.259	23.766
13.225	23.704
13.191	23.593
13.158	23.442
13.124	23.271
13.091	23.096
13.058	22.929
13.026	22.779
12.993	22.649
12.960	22.541
12.928	22.452
12.896	22.393
12.864	22.380
12.832	22.428
12.800	22.547
12.769	22.728
12.737	22.950
12.706	23.187
12.675	23.408
12.644	23.595
12.614	23.758
12.583	23.924
12.552	24.118
12.522	24.350
12.492	24.612
12.462	24.882
12.432	25.132
12.402	25.348
12.373	25.535
12.343	25.714
12.314	25.902
12.285	26.109
12.256	26.334
12.227	26.560
12.198	26.772
12.169	26.953
12.141	27.092
12.113	27.175
12.084	27.192
12.056	27.154
12.028	27.166
12.000	27.218
11.973	26.963
11.945	26.013
11.918	24.245
11.890	21.843
11.863	19.256
11.836	17.158
11.809	16.315
11.782	16.911
11.755	18.245
11.729	19.458
11.702	19.950
11.676	19.383
11.650	17.718
11.624	15.266
11.598	12.548
11.572	9.9325
11.546	7.5528
11.520	5.5929
11.495	4.2184
11.469	3.3862
11.444	2.9311
11.419	2.7845
11.394	3.0230
11.369	3.8208
11.344	5.3710
11.319	7.7830
11.294	10.914
11.270	14.285
11.245	17.335
11.221	19.738
11.197	21.410
11.173	22.438
11.149	23.016
11.125	23.369
11.101	23.628
11.077	23.797
11.054	23.858
11.030	23.858
11.007	23.855
10.983	23.889
10.960	23.975
10.937	24.110
10.914	24.268
10.891	24.405
10.868	24.482
10.846	24.482
10.823	24.402
10.800	24.259
10.778	24.082
10.756	23.910
10.733	23.783
10.711	23.729
10.689	23.761
10.667	23.879
10.645	24.060
10.623	24.283
10.602	24.530
10.580	24.796
10.558	25.083
10.537	25.393
10.516	25.722
10.494	26.049
10.473	26.341
10.452	26.576
10.431	26.738
10.410	26.826
10.389	26.849
10.368	26.812
10.348	26.713
10.327	26.545
10.306	26.308
10.286	26.025
10.266	25.726
10.245	25.450
10.225	25.224
10.205	25.037
10.185	24.850
10.165	24.624
10.145	24.326
10.125	23.947
10.106	23.494
10.086	22.996
10.066	22.477
10.047	21.952
10.027	21.429
10.008	20.929
9.9887	20.474
9.9695	20.083
9.9504	19.776
9.9313	19.574
9.9123	19.479
9.8934	19.480
9.8746	19.550
9.8558	19.658
9.8371	19.765
9.8185	19.833
9.7999	19.836
9.7814	19.778
9.7630	19.681
9.7447	19.587
9.7264	19.541
9.7082	19.582
9.6900	19.726
9.6719	19.964
9.6539	20.269
9.6360	20.618
9.6181	20.995
9.6003	21.391
9.5825	21.802
9.5649	22.222
9.5472	22.640
9.5297	23.035
9.5122	23.383
9.4948	23.664
9.4774	23.862
9.4601	23.964
9.4429	23.969
9.4257	23.890
9.4086	23.747
9.3916	23.571
9.3746	23.406
9.3577	23.269
9.3408	23.115
9.3240	22.861
9.3073	22.420
9.2906	21.771
9.2740	20.992
9.2574	20.271
9.2409	19.854
9.2245	19.919
9.2081	20.469
9.1918	21.353
9.1755	22.320
9.1593	23.140
9.1431	23.687
9.1270	23.958
9.1110	24.043
9.0950	24.055
9.0791	24.070
9.0632	24.121
9.0474	24.198
9.0316	24.284
9.0159	24.379
9.0003	24.486
8.9847	24.600
8.9691	24.724
8.9536	24.857
8.9382	24.978
8.9228	25.048
8.9075	25.038
8.8922	24.929
8.8770	24.712
8.8618	24.384
8.8467	23.964
8.8316	23.475
8.8166	22.943
8.8016	22.394
8.7867	21.862
8.7718	21.379
8.7570	20.963
8.7422	20.609
8.7275	20.294
8.7129	19.974
8.6982	19.603
8.6837	19.150
8.6692	18.604
8.6547	17.989
8.6403	17.367
8.6259	16.816
8.6116	16.401
8.5973	16.158
8.5830	16.080
8.5688	16.125
8.5547	16.227
8.5406	16.320
8.5266	16.381
8.5126	16.420
8.4986	16.472
8.4847	16.574
8.4708	16.760
8.4570	17.040
8.4432	17.405
8.4295	17.831
8.4158	18.300
8.4022	18.795
8.3886	19.292
8.3750	19.770
8.3615	20.213
8.3481	20.608
8.3347	20.946
8.3213	21.233
8.3079	21.480
8.2946	21.698
8.2814	21.890
8.2682	22.059
8.2550	22.199
8.2419	22.303
8.2288	22.361
8.2158	22.362
8.2028	22.309
8.1898	22.210
8.1769	22.077
8.1640	21.922
8.1512	21.753
8.1384	21.572
8.1256	21.376
8.1129	21.166
8.1002	20.956
8.0876	20.776
8.0750	20.649
8.0624	20.594
8.0499	20.610
8.0374	20.678
8.0250	20.761
8.0126	20.815
8.0002	20.809
7.9879	20.725
7.9756	20.557
7.9634	20.315
7.9512	20.024
7.9390	19.722
7.9268	19.440
7.9147	19.207
7.9027	19.039
7.8906	18.930
7.8787	18.851
7.8667	18.760
7.8548	18.626
7.8429	18.438
7.8310	18.207
7.8192	17.959
7.8075	17.726
7.7957	17.532
7.7840	17.375
7.7723	17.227
7.7607	17.062
7.7491	16.858
7.7375	16.597
7.7260	16.275
7.7145	15.897
7.7031	15.481
7.6916	15.038
7.6802	14.584
7.6689	14.130
7.6575	13.689
7.6462	13.270
7.6350	12.881
7.6238	12.528
7.6126	12.222
7.6014	11.966
7.5903	11.759
7.5792	11.591
7.5681	11.449
7.5571	11.318
7.5461	11.184
7.5351	11.035
7.5242	10.869
7.5133	10.686
7.5024	10.486
7.4916	10.270
7.4807	10.040
7.4700	9.7961
7.4592	9.5432
7.4485	9.2834
7.4378	9.0234
7.4272	8.7667
7.4165	8.5131
7.4059	8.2590
7.3954	7.9966
7.3848	7.7178
7.3743	7.4175
7.3639	7.0945
7.3534	6.7561
7.3430	6.4142
7.3326	6.0802
7.3223	5.7660
7.3119	5.4790
7.3016	5.2206
7.2914	4.9881
7.2811	4.7780
7.2709	4.5871
7.2607	4.4119
7.2506	4.2511
7.2404	4.1050
7.2303	3.9764
7.2203	3.8677
7.2102	3.7793
7.2002	3.7130
7.1902	3.6661
7.1803	3.6370
7.1703	3.6266
7.1604	3.6370
7.1506	3.6740
7.1407	3.7410
7.1309	3.8317
7.1211	3.9330
7.1113	4.0266
7.1016	4.0945
7.0919	4.1265
7.0822	4.1230
7.0725	4.0955
7.0629	4.0567
7.0533	4.0152
7.0437	3.9761
7.0341	3.9394
7.0246	3.9030
7.0151	3.8653
7.0056	3.8291
6.9962	3.7950
6.9867	3.7625
6.9773	3.7327
6.9679	3.7078
6.9586	3.6910
6.9493	3.6853
6.9400	3.6924
6.9307	3.7126
6.9214	3.7403
6.9122	3.7684
6.9030	3.7931
6.8938	3.8137
6.8847	3.8326
6.8755	3.8513
6.8664	3.8715
6.8573	3.8959
6.8483	3.9212
6.8393	3.9458
6.8302	3.9681
6.8213	3.9873
6.8123	4.0055
6.8034	4.0244
6.7944	4.0458
6.7855	4.0732
6.7767	4.1047
6.7678	4.1395
6.7590	4.1770
6.7502	4.2141
6.7414	4.2506
6.7327	4.2876
6.7239	4.3257
6.7152	4.3688
6.7065	4.4171
6.6979	4.4692
6.6892	4.5263
6.6806	4.5862
6.6720	4.6480
6.6634	4.7162
6.6549	4.7934
6.6464	4.8839
6.6378	4.9885
6.6294	5.1048
6.6209	5.2308
6.6124	5.3620
6.6040	5.4970
6.5956	5.6391
6.5872	5.7883
6.5789	5.9443
6.5705	6.1046
6.5622	6.2671
6.5539	6.4284
6.5456	6.5854
6.5374	6.7384
6.5292	6.8897
6.5209	7.0431
6.5128	7.2023
6.5046	7.3752
6.4964	7.5736
6.4883	7.8064
6.4802	8.0745
6.4721	8.3629
6.4640	8.6390
6.4560	8.8590
6.4480	8.9791
6.4399	8.9715
6.4320	8.8349
6.4240	8.5898
6.4160	8.2774
6.4081	7.9374
6.4002	7.5942
6.3923	7.2556
6.3844	6.9169
6.3766	6.5650
6.3687	6.1882
6.3609	5.7833
6.3531	5.3627
6.3454	4.9468
6.3376	4.5556
6.3299	4.2113
6.3221	3.9314
6.3144	3.7232
6.3068	3.5856
6.2991	3.5089
6.2914	3.4750
6.2838	3.4634
6.2762	3.4566
6.2686	3.4409
6.2611	3.4097
6.2535	3.3642
6.2460	3.3109
6.2385	3.2536
6.2310	3.1932
6.2235	3.1338
6.2160	3.0805
6.2086	3.0343
6.2011	2.9969
6.1937	2.9706
6.1863	2.9590
6.1790	2.9595
6.1716	2.9682
6.1643	2.9860
6.1570	3.0109
6.1496	3.0405
6.1424	3.0748
6.1351	3.1132
6.1278	3.1570
6.1206	3.2044
6.1134	3.2565
6.1062	3.3173
6.0990	3.3850
6.0918	3.4594
6.0847	3.5428
6.0776	3.6356
6.0704	3.7398
6.0633	3.8561
6.0563	3.9875
6.0492	4.1386
6.0421	4.3051
6.0351	4.4798
6.0281	4.6567
6.0211	4.8327
6.0141	5.0053
6.0071	5.1728
6.0002	5.3371
5.9932	5.5062
5.9863	5.6819
5.9794	5.8600
5.9725	6.0407
5.9657	6.2273
5.9588	6.4217
5.9520	6.6259
5.9451	6.8445
5.9383	7.0806
5.9315	7.3285
5.9247	7.5774
5.9180	7.8206
5.9112	8.0517
5.9045	8.2672
5.8978	8.4714
5.8911	8.6679
5.8844	8.8598
5.8777	9.0466
5.8711	9.2211
5.8644	9.3767
5.8578	9.5065
5.8512	9.6105
5.8446	9.6936
5.8380	9.7618
5.8314	9.8241
5.8249	9.8897
5.8184	9.9557
5.8118	10.016
5.8053	10.063
5.7988	10.096
5.7923	10.114
5.7859	10.122
5.7794	10.132
5.7730	10.162
5.7666	10.223
5.7602	10.322
5.7538	10.464
5.7474	10.648
5.7410	10.869
5.7347	11.119
5.7283	11.387
5.7220	11.665
5.7157	11.947
5.7094	12.229
5.7031	12.514
5.6969	12.810
5.6906	13.133
5.6844	13.496
5.6782	13.902
5.6719	14.332
5.6657	14.752
5.6596	15.113
5.6534	15.348
5.6472	15.384
5.6411	15.156
5.6349	14.616
5.6288	13.734
5.6227	12.509
5.6166	10.985
5.6106	9.2578
5.6045	7.4680
5.5984	5.7700
5.5924	4.3015
5.5864	3.1560
5.5804	2.3722
5.5744	1.9483
5.5684	1.8955
5.5624	2.2696
5.5564	3.1591
5.5505	4.6316
5.5445	6.6732
5.5386	9.1605
5.5327	11.882
5.5268	14.594
5.5209	17.101
5.5151	19.295
5.5092	21.170
5.5033	22.778
5.4975	24.187
5.4917	25.460
5.4859	26.637
5.4801	27.745
5.4743	28.800
5.4685	29.813
5.4628	30.791
5.4570	31.737
5.4513	32.652
5.4455	33.539
5.4398	34.401
5.4341	35.237
5.4284	36.051
5.4228	36.848
5.4171	37.625
5.4114	38.378
5.4058	39.107
5.4002	39.812
5.3945	40.496
5.3889	41.157
5.3833	41.791
5.3778	42.402
5.3722	42.988
5.3666	43.549
5.3611	44.090
5.3555	44.619
5.3500	45.144
5.3445	45.662
5.3390	46.168
5.3335	46.660
5.3280	47.134
5.3225	47.587
5.3171	48.018
5.3116	48.427
5.3062	48.814
5.3008	49.179
5.2954	49.520
5.2900	49.839
5.2846	50.138
5.2792	50.424
5.2738	50.702
5.2684	50.970
5.2631	51.232
5.2578	51.492
5.2524	51.744
5.2471	51.987
5.2418	52.217
5.2365	52.437
5.2312	52.648
5.2260	52.851
5.2207	53.051
5.2154	53.249
5.2102	53.442
5.2050	53.627
5.1998	53.800
5.1945	53.960
5.1893	54.107
5.1842	54.242
5.1790	54.371
5.1738	54.497
5.1686	54.620
5.1635	54.741
5.1584	54.860
5.1532	54.978
5.1481	55.097
5.1430	55.213
5.1379	55.272
5.1328	55.147
5.1277	54.702
5.1227	53.897
5.1176	52.842
5.1126	51.790
5.1075	51.073
5.1025	50.986
5.0975	51.616
5.0925	52.764
5.0875	54.083
5.0825	55.258
5.0775	56.100
5.0726	56.569
5.0676	56.754
5.0627	56.806
5.0577	56.835
5.0528	56.869
5.0479	56.900
5.0430	56.925
5.0380	56.941
5.0332	56.950
5.0283	56.951
5.0234	56.949
5.0185	56.949
5.0137	56.950
5.0088	56.955
5.0040	56.959
4.9992	56.960
4.9944	56.954
4.9896	56.941
4.9848	56.923
4.9800	56.902
4.9752	56.880
4.9704	56.860
4.9657	56.840
4.9609	56.822
4.9562	56.803
4.9514	56.786
4.9467	56.771
4.9420	56.759
4.9373	56.748
4.9326	56.739
4.9279	56.734
4.9232	56.736
4.9186	56.743
4.9139	56.757
4.9092	56.776
4.9046	56.797
4.9000	56.815
4.8953	56.829
4.8907	56.840
4.8861	56.846
4.8815	56.847
4.8769	56.845
4.8723	56.845
4.8678	56.847
4.8632	56.851
4.8586	56.860
4.8541	56.870
4.8495	56.877
4.8450	56.878
4.8405	56.873
4.8360	56.863
4.8315	56.847
4.8270	56.825
4.8225	56.798
4.8180	56.769
4.8135	56.738
4.8090	56.706
4.8046	56.672
4.8001	56.634
4.7957	56.585
4.7913	56.521
4.7868	56.434
4.7824	56.316
4.7780	56.167
4.7736	55.984
4.7692	55.765
4.7648	55.509
4.7605	55.212
4.7561	54.874
4.7517	54.489
4.7474	54.050
4.7431	53.544
4.7387	52.951
4.7344	52.250
4.7301	51.420
4.7258	50.448
4.7215	49.342
4.7172	48.137
4.7129	46.878
4.7086	45.627
4.7043	44.444
4.7000	43.382
4.6958	42.475
4.6915	41.737
4.6873	41.167
4.6831	40.760
4.6788	40.503
4.6746	40.394
4.6704	40.437
4.6662	40.647
4.6620	41.040
4.6578	41.626
4.6536	42.392
4.6495	43.299
4.6453	44.289
4.6411	45.293
4.6370	46.250
4.6328	47.118
4.6287	47.882
4.6246	48.542
4.6205	49.105
4.6163	49.582
4.6122	49.982
4.6081	50.313
4.6040	50.587
4.6000	50.816
4.5959	51.009
4.5918	51.171
4.5877	51.306
4.5837	51.415
4.5796	51.500
4.5756	51.567
4.5716	51.624
4.5675	51.676
4.5635	51.726
4.5595	51.771
4.5555	51.810
4.5515	51.842
4.5475	51.868
4.5435	51.892
4.5395	51.914
4.5356	51.937
4.5316	51.961
4.5276	51.988
4.5237	52.020
4.5197	52.063
4.5158	52.120
4.5119	52.197
4.5080	52.296
4.5040	52.423
4.5001	52.584
4.4962	52.780
4.4923	53.008
4.4884	53.262
4.4846	53.532
4.4807	53.809
4.4768	54.079
4.4730	54.336
4.4691	54.576
4.4652	54.795
4.4614	54.997
4.4576	55.191
4.4537	55.384
4.4499	55.582
4.4461	55.788
4.4423	55.996
4.4385	56.198
4.4347	56.388
4.4309	56.561
4.4271	56.712
4.4233	56.841
4.4196	56.952
4.4158	57.042
4.4120	57.111
4.4083	57.161
4.4045	57.200
4.4008	57.234
4.3971	57.265
4.3934	57.298
4.3896	57.337
4.3859	57.373
4.3822	57.397
4.3785	57.403
4.3748	57.381
4.3711	57.323
4.3674	57.226
4.3638	57.100
4.3601	56.956
4.3564	56.812
4.3528	56.684
4.3491	56.584
4.3455	56.512
4.3418	56.465
4.3382	56.435
4.3346	56.414
4.3310	56.397
4.3273	56.379
4.3237	56.355
4.3201	56.326
4.3165	56.292
4.3129	56.262
4.3094	56.239
4.3058	56.210
4.3022	56.138
4.2986	55.964
4.2951	55.592
4.2915	54.908
4.2880	53.835
4.2844	52.422
4.2809	50.871
4.2774	49.494
4.2738	48.640
4.2703	48.567
4.2668	49.319
4.2633	50.680
4.2598	52.283
4.2563	53.773
4.2528	54.918
4.2493	55.645
4.2458	56.017
4.2424	56.170
4.2389	56.225
4.2354	56.248
4.2320	56.255
4.2285	56.254
4.2251	56.244
4.2216	56.227
4.2182	56.201
4.2148	56.162
4.2113	56.110
4.2079	56.044
4.2045	55.966
4.2011	55.877
4.1977	55.776
4.1943	55.661
4.1909	55.537
4.1875	55.405
4.1841	55.267
4.1808	55.122
4.1774	54.972
4.1740	54.814
4.1707	54.641
4.1673	54.448
4.1640	54.235
4.1606	54.001
4.1573	53.751
4.1540	53.487
4.1506	53.211
4.1473	52.919
4.1440	52.609
4.1407	52.277
4.1374	51.922
4.1341	51.547
4.1308	51.156
4.1275	50.753
4.1242	50.341
4.1209	49.919
4.1177	49.485
4.1144	49.037
4.1111	48.575
4.1079	48.100
4.1046	47.612
4.1014	47.108
4.0981	46.582
4.0949	46.027
4.0917	45.432
4.0884	44.791
4.0852	44.102
4.0820	43.365
4.0788	42.585
4.0756	41.768
4.0724	40.917
4.0692	40.030
4.0660	39.099
4.0628	38.104
4.0596	37.014
4.0565	35.793
4.0533	34.417
4.0501	32.878
4.0470	31.193
4.0438	29.403
4.0407	27.566
4.0375	25.739
4.0344	23.966
4.0312	22.276
4.0281	20.682
4.0250	19.183
4.0218	17.768
4.0187	16.418
4.0156	15.116
4.0125	13.854
4.0094	12.630
4.0063	11.458
4.0032	10.361
4.0001	9.3630
3.9970	8.4903
3.9940	7.7600
3.9909	7.1833
3.9878	6.7606
3.9847	6.4821
3.9817	6.3332
3.9786	6.2946
3.9756	6.3433
3.9725	6.4660
3.9695	6.6630
3.9665	6.9437
3.9634	7.3202
3.9604	7.8109
3.9574	8.4413
3.9544	9.2273
3.9513	10.162
3.9483	11.211
3.9453	12.308
3.9423	13.367
3.9393	14.302
3.9363	15.060
3.9333	15.637
3.9304	16.073
3.9274	16.423
3.9244	16.733
3.9214	17.026
3.9185	17.305
3.9155	17.559
3.9126	17.777
3.9096	17.959
3.9067	18.113
3.9037	18.250
3.9008	18.377
3.8979	18.498
3.8949	18.618
3.8920	18.735
3.8891	18.851
3.8862	18.959
3.8833	19.055
3.8804	19.140
3.8775	19.215
3.8746	19.285
3.8717	19.361
3.8688	19.450
3.8659	19.557
3.8630	19.679
3.8601	19.816
3.8573	19.971
3.8544	20.148
3.8515	20.356
3.8487	20.618
3.8458	20.961
3.8430	21.413
3.8401	21.994
3.8373	22.713
3.8344	23.563
3.8316	24.519
3.8288	25.551
3.8259	26.630
3.8231	27.743
3.8203	28.890
3.8175	30.081
3.8147	31.333
3.8119	32.671
3.8091	34.116
3.8063	35.675
3.8035	37.337
3.8007	39.065
3.7979	40.796
3.7951	42.451
3.7924	43.952
3.7896	45.247
3.7868	46.314
3.7841	47.167
3.7813	47.839
3.7785	48.373
3.7758	48.805
3.7730	49.162
3.7703	49.460
3.7676	49.707
3.7648	49.911
3.7621	50.077
3.7594	50.213
3.7566	50.321
3.7539	50.413
3.7512	50.500
3.7485	50.594
3.7458	50.704
3.7431	50.830
3.7404	50.966
3.7377	51.097
3.7350	51.209
3.7323	51.299
3.7296	51.366
3.7269	51.414
3.7242	51.451
3.7216	51.481
3.7189	51.506
3.7162	51.520
3.7136	51.524
3.7109	51.519
3.7083	51.505
3.7056	51.480
3.7030	51.448
3.7003	51.410
3.6977	51.367
3.6950	51.318
3.6924	51.265
3.6898	51.211
3.6872	51.152
3.6845	51.085
3.6819	51.011
3.6793	50.929
3.6767	50.838
3.6741	50.737
3.6715	50.632
3.6689	50.526
3.6663	50.419
3.6637	50.309
3.6611	50.195
3.6585	50.076
3.6560	49.948
3.6534	49.812
3.6508	49.670
3.6482	49.523
3.6457	49.369
3.6431	49.209
3.6406	49.046
3.6380	48.881
3.6355	48.714
3.6329	48.544
3.6304	48.369
3.6278	48.189
3.6253	48.000
3.6227	47.804
3.6202	47.604
3.6177	47.399
3.6152	47.187
3.6127	46.962
3.6101	46.720
3.6076	46.460
3.6051	46.179
3.6026	45.875
3.6001	45.546
3.5976	45.191
3.5951	44.804
3.5926	44.378
3.5901	43.907
3.5876	43.389
3.5852	42.824
3.5827	42.230
3.5802	41.637
3.5777	41.080
3.5753	40.597
3.5728	40.206
3.5704	39.901
3.5679	39.652
3.5654	39.412
3.5630	39.139
3.5605	38.797
3.5581	38.373
3.5557	37.870
3.5532	37.297
3.5508	36.659
3.5484	35.957
3.5459	35.185
3.5435	34.337
3.5411	33.407
3.5387	32.389
3.5363	31.279
3.5338	30.070
3.5314	28.766
3.5290	27.383
3.5266	25.955
3.5242	24.534
3.5218	23.179
3.5195	21.942
3.5171	20.862
3.5147	19.943
3.5123	19.166
3.5099	18.501
3.5075	17.912
3.5052	17.368
3.5028	16.845
3.5004	16.332
3.4981	15.830
3.4957	15.340
3.4934	14.862
3.4910	14.403
3.4887	13.972
3.4863	13.582
3.4840	13.261
3.4816	13.052
3.4793	13.014
3.4770	13.198
3.4746	13.632
3.4723	14.304
3.4700	15.160
3.4677	16.111
3.4653	17.058
3.4630	17.913
3.4607	18.622
3.4584	19.167
3.4561	19.561
3.4538	19.833
3.4515	20.016
3.4492	20.144
3.4469	20.241
3.4446	20.322
3.4423	20.392
3.4400	20.451
3.4378	20.494
3.4355	20.518
3.4332	20.524
3.4309	20.516
3.4287	20.494
3.4264	20.465
3.4241	20.431
3.4219	20.388
3.4196	20.332
3.4174	20.270
3.4151	20.201
3.4129	20.122
3.4106	20.034
3.4084	19.946
3.4061	19.860
3.4039	19.774
3.4017	19.690
3.3994	19.603
3.3972	19.506
3.3950	19.394
3.3928	19.270
3.3906	19.142
3.3883	19.015
3.3861	18.897
3.3839	18.792
3.3817	18.699
3.3795	18.617
3.3773	18.540
3.3751	18.462
3.3729	18.368
3.3707	18.241
3.3685	18.066
3.3663	17.826
3.3641	17.521
3.3620	17.162
3.3598	16.775
3.3576	16.406
3.3554	16.125
3.3533	16.021
3.3511	16.189
3.3489	16.710
3.3468	17.625
3.3446	18.910
3.3425	20.472
3.3403	22.166
3.3382	23.834
3.3360	25.346
3.3339	26.621
3.3317	27.641
3.3296	28.432
3.3274	29.042
3.3253	29.521
3.3232	29.905
3.3210	30.219
3.3189	30.478
3.3168	30.688
3.3147	30.856
3.3126	30.989
3.3104	31.098
3.3083	31.194
3.3062	31.282
3.3041	31.365
3.3020	31.443
3.2999	31.508
3.2978	31.556
3.2957	31.584
3.2936	31.599
3.2915	31.607
3.2894	31.607
3.2874	31.601
3.2853	31.590
3.2832	31.573
3.2811	31.552
3.2790	31.531
3.2770	31.509
3.2749	31.486
3.2728	31.459
3.2708	31.425
3.2687	31.386
3.2666	31.343
3.2646	31.297
3.2625	31.252
3.2605	31.206
3.2584	31.158
3.2564	31.106
3.2543	31.053
3.2523	31.001
3.2503	30.946
3.2482	30.889
3.2462	30.831
3.2442	30.768
3.2421	30.698
3.2401	30.624
3.2381	30.545
3.2361	30.465
3.2340	30.386
3.2320	30.314
3.2300	30.246
3.2280	30.180
3.2260	30.119
3.2240	30.059
3.2220	29.994
3.2200	29.923
3.2180	29.849
3.2160	29.773
3.2140	29.691
3.2120	29.603
3.2100	29.519
3.2080	29.436
3.2060	29.356
3.2041	29.281
3.2021	29.209
3.2001	29.139
3.1981	29.065
3.1961	28.986
3.1942	28.901
3.1922	28.812
3.1902	28.722
3.1883	28.635
3.1863	28.545
3.1844	28.452
3.1824	28.358
3.1805	28.259
3.1785	28.152
3.1766	28.038
3.1746	27.923
3.1727	27.809
3.1707	27.694
3.1688	27.580
3.1669	27.470
3.1649	27.362
3.1630	27.253
3.1611	27.142
3.1591	27.032
3.1572	26.924
3.1553	26.822
3.1534	26.727
3.1515	26.641
3.1495	26.566
3.1476	26.503
3.1457	26.447
3.1438	26.390
3.1419	26.331
3.1400	26.270
3.1381	26.206
3.1362	26.139
3.1343	26.074
3.1324	26.014
3.1305	25.953
3.1286	25.885
3.1268	25.808
3.1249	25.722
3.1230	25.629
3.1211	25.534
3.1192	25.439
3.1173	25.348
3.1155	25.265
3.1136	25.188
3.1117	25.118
3.1099	25.057
3.1080	25.009
3.1061	24.976
3.1043	24.945
3.1024	24.915
3.1006	24.886
3.0987	24.856
3.0969	24.823
3.0950	24.795
3.0932	24.781
3.0913	24.775
3.0895	24.771
3.0876	24.765
3.0858	24.753
3.0840	24.732
3.0821	24.704
3.0803	24.674
3.0785	24.648
3.0766	24.624
3.0748	24.606
3.0730	24.598
3.0712	24.589
3.0694	24.576
3.0675	24.553
3.0657	24.522
3.0639	24.489
3.0621	24.455
3.0603	24.430
3.0585	24.418
3.0567	24.414
3.0549	24.409
3.0531	24.397
3.0513	24.380
3.0495	24.361
3.0477	24.338
3.0459	24.317
3.0441	24.303
3.0423	24.293
3.0406	24.279
3.0388	24.259
3.0370	24.239
3.0352	24.218
3.0334	24.198
3.0317	24.180
3.0299	24.163
3.0281	24.144
3.0264	24.119
3.0246	24.086
3.0228	24.054
3.0211	24.027
3.0193	24.002
3.0176	23.978
3.0158	23.953
3.0140	23.925
3.0123	23.891
3.0105	23.859
3.0088	23.835
3.0070	23.818
3.0053	23.804
3.0036	23.792
3.0018	23.779
3.0001	23.760
2.9984	23.737
2.9966	23.717
2.9949	23.704
2.9932	23.692
2.9914	23.678
2.9897	23.663
2.9880	23.648
2.9863	23.627
2.9845	23.596
2.9828	23.562
2.9811	23.534
2.9794	23.511
2.9777	23.496
2.9760	23.492
2.9743	23.498
2.9726	23.506
2.9709	23.505
2.9692	23.500
2.9675	23.496
2.9658	23.490
2.9641	23.481
2.9624	23.472
2.9607	23.468
2.9590	23.469
2.9573	23.471
2.9556	23.476
2.9539	23.483
2.9523	23.487
2.9506	23.489
2.9489	23.495
2.9472	23.513
2.9455	23.541
2.9439	23.571
2.9422	23.597
2.9405	23.615
2.9389	23.624
2.9372	23.625
2.9355	23.631
2.9339	23.648
2.9322	23.674
2.9306	23.705
2.9289	23.737
2.9272	23.770
2.9256	23.801
2.9239	23.832
2.9223	23.874
2.9207	23.931
2.9190	23.992
2.9174	24.056
2.9157	24.118
2.9141	24.173
2.9124	24.216
2.9108	24.254
2.9092	24.302
2.9075	24.363
2.9059	24.428
2.9043	24.494
2.9027	24.561
2.9010	24.623
2.8994	24.679
2.8978	24.733
2.8962	24.798
2.8946	24.877
2.8929	24.963
2.8913	25.053
2.8897	25.148
2.8881	25.244
2.8865	25.338
2.8849	25.429
2.8833	25.517
2.8817	25.607
2.8801	25.697
2.8785	25.786
2.8769	25.873
2.8753	25.962
2.8737	26.055
2.8721	26.149
2.8705	26.243
2.8689	26.341
2.8673	26.447
2.8658	26.560
2.8642	26.678
2.8626	26.805
2.8610	26.937
2.8594	27.067
2.8579	27.192
2.8563	27.310
2.8547	27.425
2.8531	27.537
2.8516	27.649
2.8500	27.765
2.8484	27.895
2.8469	28.035
2.8453	28.182
2.8437	28.336
2.8422	28.494
2.8406	28.649
2.8391	28.797
2.8375	28.945
2.8360	29.096
2.8344	29.252
2.8329	29.410
2.8313	29.575
2.8298	29.744
2.8282	29.915
2.8267	30.085
2.8252	30.254
2.8236	30.424
2.8221	30.597
2.8205	30.770
2.8190	30.940
2.8175	31.113
2.8159	31.291
2.8144	31.470
2.8129	31.647
2.8114	31.823
2.8098	31.996
2.8083	32.162
2.8068	32.320
2.8053	32.480
2.8038	32.647
2.8022	32.818
2.8007	32.993
2.7992	33.164
2.7977	33.326
2.7962	33.475
2.7947	33.611
2.7932	33.743
2.7917	33.883
2.7902	34.045
2.7887	34.243
2.7872	34.482
2.7857	34.762
2.7842	35.074
2.7827	35.407
2.7812	35.752
2.7797	36.100
2.7782	36.446
2.7767	36.792
2.7752	37.143
2.7738	37.488
2.7723	37.784
2.7708	37.971
2.7693	38.011
2.7678	37.921
2.7664	37.772
2.7649	37.683
2.7634	37.794
2.7619	38.188
2.7605	38.842
2.7590	39.653
2.7575	40.508
2.7561	41.322
2.7546	42.041
2.7531	42.655
2.7517	43.193
2.7502	43.671
2.7488	44.076
2.7473	44.390
2.7458	44.623
2.7444	44.799
2.7429	44.955
2.7415	45.149
2.7400	45.446
2.7386	45.888
2.7371	46.481
2.7357	47.204
2.7343	48.007
2.7328	48.823
2.7314	49.598
2.7299	50.310
2.7285	50.973
2.7271	51.628
2.7256	52.314
2.7242	53.050
2.7228	53.811
2.7213	54.545
2.7199	55.178
2.7185	55.629
2.7171	55.838
2.7156	55.776
2.7142	55.432
2.7128	54.833
2.7114	54.056
2.7100	53.234
2.7085	52.542
2.7071	52.179
2.7057	52.316
2.7043	53.031
2.7029	54.277
2.7015	55.913
2.7001	57.754
2.6987	59.626
2.6973	61.409
2.6959	63.064
2.6945	64.595
2.6931	66.009
2.6917	67.300
2.6903	68.457
2.6889	69.459
2.6875	70.304
2.6861	71.000
2.6847	71.570
2.6833	72.041
2.6819	72.452
2.6805	72.833
2.6791	73.192
2.6778	73.526
2.6764	73.832
2.6750	74.099
2.6736	74.306
2.6722	74.466
2.6709	74.629
2.6695	74.820
2.6681	75.037
2.6667	75.287
2.6654	75.569
2.6640	75.857
2.6626	76.116
2.6613	76.335
2.6599	76.527
2.6585	76.686
2.6572	76.810
2.6558	76.919
2.6545	77.032
2.6531	77.156
2.6517	77.281
2.6504	77.408
2.6490	77.534
2.6477	77.658
2.6463	77.775
2.6450	77.892
2.6436	78.009
2.6423	78.118
2.6409	78.215
2.6396	78.293
2.6382	78.349
2.6369	78.381
2.6356	78.393
2.6342	78.398
2.6329	78.408
2.6315	78.443
2.6302	78.519
2.6289	78.624
2.6275	78.742
2.6262	78.850
2.6249	78.915
2.6236	78.933
2.6222	78.922
2.6209	78.919
2.6196	78.944
2.6183	78.997
2.6169	79.085
2.6156	79.183
2.6143	79.249
2.6130	79.267
2.6117	79.240
2.6103	79.187
2.6090	79.126
2.6077	79.084
2.6064	79.093
2.6051	79.160
2.6038	79.244
2.6025	79.295
2.6012	79.282
2.5999	79.202
2.5986	79.077
2.5973	78.945
2.5960	78.855
2.5947	78.841
2.5934	78.867
2.5921	78.873
2.5908	78.834
2.5895	78.745
2.5882	78.619
2.5869	78.483
2.5856	78.362
2.5843	78.284
2.5830	78.237
2.5817	78.190
2.5805	78.133
2.5792	78.056
2.5779	77.953
2.5766	77.825
2.5753	77.671
2.5741	77.516
2.5728	77.369
2.5715	77.219
2.5702	77.059
2.5690	76.870
2.5677	76.639
2.5664	76.359
2.5651	76.031
2.5639	75.674
2.5626	75.296
2.5613	74.900
2.5601	74.475
2.5588	74.011
2.5575	73.502
2.5563	72.949
2.5550	72.355
2.5538	71.732
2.5525	71.096
2.5513	70.460
2.5500	69.824
2.5487	69.192
2.5475	68.574
2.5462	67.978
2.5450	67.410
2.5437	66.889
2.5425	66.438
2.5413	66.066
2.5400	65.777
2.5388	65.573
2.5375	65.462
2.5363	65.440
2.5350	65.499
2.5338	65.634
2.5326	65.836
2.5313	66.088
2.5301	66.374
2.5289	66.682
2.5276	67.011
2.5264	67.357
2.5252	67.710
2.5239	68.062
2.5227	68.406
2.5215	68.732
2.5202	69.037
2.5190	69.318
2.5178	69.573
2.5166	69.802
2.5154	70.004
2.5141	70.175
2.5129	70.321
2.5117	70.444
2.5105	70.553
2.5093	70.655
2.5081	70.751
2.5068	70.843
2.5056	70.933
2.5044	71.018
2.5032	71.096
2.5020	71.168
2.5008	71.240
2.4996	71.320
2.4984	71.409
2.4972	71.507
2.4960	71.610
2.4948	71.717
2.4936	71.825
2.4924	71.935
2.4912	72.052
2.4900	72.181
2.4888	72.324
2.4876	72.478
2.4864	72.643
2.4852	72.822
2.4840	73.011
2.4828	73.207
2.4816	73.407
2.4805	73.612
2.4793	73.824
2.4781	74.047
2.4769	74.287
2.4757	74.547
2.4745	74.825
2.4734	75.114
2.4722	75.412
2.4710	75.712
2.4698	76.004
2.4686	76.282
2.4675	76.548
2.4663	76.800
2.4651	77.042
2.4640	77.276
2.4628	77.508
2.4616	77.738
2.4604	77.963
2.4593	78.182
2.4581	78.396
2.4569	78.600
2.4558	78.790
2.4546	78.967
2.4535	79.131
2.4523	79.286
2.4511	79.435
2.4500	79.584
2.4488	79.734
2.4477	79.883
2.4465	80.029
2.4454	80.173
2.4442	80.316
2.4431	80.458
2.4419	80.604
2.4408	80.754
2.4396	80.901
2.4385	81.043
2.4373	81.179
2.4362	81.311
2.4350	81.437
2.4339	81.557
2.4327	81.673
2.4316	81.785
2.4305	81.894
2.4293	81.999
2.4282	82.102
2.4270	82.206
2.4259	82.310
2.4248	82.413
2.4236	82.512
2.4225	82.613
2.4214	82.715
2.4202	82.815
2.4191	82.911
2.4180	83.003
2.4169	83.086
2.4157	83.159
2.4146	83.225
2.4135	83.289
2.4124	83.350
2.4112	83.405
2.4101	83.456
2.4090	83.503
2.4079	83.542
2.4068	83.573
2.4056	83.600
2.4045	83.628
2.4034	83.657
2.4023	83.689
2.4012	83.727
2.4001	83.769
2.3990	83.815
2.3979	83.860
2.3967	83.901
2.3956	83.945
2.3945	83.989
2.3934	84.031
2.3923	84.060
2.3912	84.076
2.3901	84.084
2.3890	84.081
2.3879	84.068
2.3868	84.053
2.3857	84.036
2.3846	84.019
2.3835	83.995
2.3824	83.964
2.3813	83.927
2.3802	83.879
2.3791	83.819
2.3781	83.749
2.3770	83.670
2.3759	83.582
2.3748	83.484
2.3737	83.370
2.3726	83.231
2.3715	83.066
2.3704	82.887
2.3694	82.701
2.3683	82.509
2.3672	82.312
2.3661	82.099
2.3650	81.854
2.3640	81.563
2.3629	81.235
2.3618	80.888
2.3607	80.536
2.3597	80.189
2.3586	79.852
2.3575	79.514
2.3564	79.164
2.3554	78.800
2.3543	78.435
2.3532	78.082
2.3522	77.754
2.3511	77.461
2.3500	77.200
2.3490	76.962
2.3479	76.743
2.3468	76.539
2.3458	76.359
2.3447	76.207
2.3436	76.084
2.3426	75.993
2.3415	75.937
2.3405	75.916
2.3394	75.926
2.3384	75.965
2.3373	76.036
2.3363	76.137
2.3352	76.261
2.3342	76.405
2.3331	76.570
2.3321	76.749
2.3310	76.937
2.3300	77.127
2.3289	77.319
2.3279	77.508
2.3268	77.694
2.3258	77.874
2.3247	78.049
2.3237	78.219
2.3226	78.384
2.3216	78.547
2.3206	78.708
2.3195	78.869
2.3185	79.030
2.3175	79.182
2.3164	79.316
2.3154	79.433
2.3144	79.530
2.3133	79.608
2.3123	79.672
2.3113	79.729
2.3102	79.782
2.3092	79.830
2.3082	79.878
2.3071	79.933
2.3061	79.999
2.3051	80.078
2.3041	80.167
2.3030	80.263
2.3020	80.361
2.3010	80.449
2.3000	80.525
2.2990	80.590
2.2979	80.652
2.2969	80.718
2.2959	80.794
2.2949	80.885
2.2939	80.993
2.2929	81.113
2.2918	81.239
2.2908	81.365
2.2898	81.493
2.2888	81.622
2.2878	81.750
2.2868	81.877
2.2858	82.007
2.2848	82.139
2.2838	82.275
2.2828	82.420
2.2818	82.574
2.2808	82.737
2.2798	82.897
2.2787	83.053
2.2777	83.202
2.2767	83.340
2.2757	83.466
2.2747	83.589
2.2738	83.719
2.2728	83.849
2.2718	83.981
2.2708	84.124
2.2698	84.274
2.2688	84.413
2.2678	84.533
2.2668	84.645
2.2658	84.748
2.2648	84.839
2.2638	84.928
2.2628	85.026
2.2618	85.130
2.2609	85.230
2.2599	85.327
2.2589	85.426
2.2579	85.524
2.2569	85.621
2.2559	85.712
2.2550	85.796
2.2540	85.871
2.2530	85.939
2.2520	86.005
2.2510	86.078
2.2501	86.163
2.2491	86.265
2.2481	86.369
2.2471	86.463
2.2462	86.544
2.2452	86.614
2.2442	86.674
2.2433	86.729
2.2423	86.786
2.2413	86.846
2.2403	86.901
2.2394	86.950
2.2384	86.999
2.2374	87.050
2.2365	87.103
2.2355	87.156
2.2345	87.211
2.2336	87.261
2.2326	87.304
2.2317	87.346
2.2307	87.396
2.2297	87.449
2.2288	87.501
2.2278	87.550
2.2269	87.596
2.2259	87.633
2.2250	87.662
2.2240	87.695
2.2231	87.726
2.2221	87.747
2.2211	87.756
2.2202	87.760
2.2192	87.765
2.2183	87.767
2.2173	87.768
2.2164	87.773
2.2155	87.766
2.2145	87.740
2.2136	87.700
2.2126	87.657
2.2117	87.619
2.2107	87.586
2.2098	87.574
2.2088	87.594
2.2079	87.635
2.2070	87.696
2.2060	87.765
2.2051	87.834
2.2041	87.892
2.2032	87.931
2.2023	87.961
2.2013	87.989
2.2004	88.014
2.1995	88.043
2.1985	88.074
2.1976	88.102
2.1967	88.123
2.1957	88.133
2.1948	88.135
2.1939	88.131
2.1930	88.122
2.1920	88.116
2.1911	88.113
2.1902	88.113
2.1893	88.116
2.1883	88.117
2.1874	88.109
2.1865	88.094
2.1856	88.070
2.1846	88.045
2.1837	88.027
2.1828	88.026
2.1819	88.037
2.1810	88.046
2.1800	88.041
2.1791	88.017
2.1782	87.971
2.1773	87.914
2.1764	87.863
2.1755	87.825
2.1746	87.798
2.1736	87.785
2.1727	87.787
2.1718	87.792
2.1709	87.796
2.1700	87.795
2.1691	87.785
2.1682	87.750
2.1673	87.701
2.1664	87.658
2.1655	87.629
2.1646	87.610
2.1637	87.606
2.1628	87.611
2.1619	87.610
2.1610	87.591
2.1601	87.564
2.1592	87.545
2.1583	87.541
2.1574	87.552
2.1565	87.567
2.1556	87.578
2.1547	87.579
2.1538	87.568
2.1529	87.549
2.1520	87.547
2.1511	87.576
2.1502	87.624
2.1493	87.673
2.1484	87.718
2.1475	87.758
2.1466	87.784
2.1458	87.792
2.1449	87.803
2.1440	87.827
2.1431	87.849
2.1422	87.871
2.1413	87.903
2.1404	87.942
2.1396	87.976
2.1387	88.000
2.1378	88.021
2.1369	88.040
2.1360	88.050
2.1352	88.054
2.1343	88.059
2.1334	88.067
2.1325	88.076
2.1316	88.082
2.1308	88.089
2.1299	88.098
2.1290	88.103
2.1281	88.101
2.1273	88.101
2.1264	88.108
2.1255	88.122
2.1247	88.140
2.1238	88.161
2.1229	88.177
2.1220	88.180
2.1212	88.171
2.1203	88.149
2.1194	88.116
2.1186	88.077
2.1177	88.037
2.1168	88.010
2.1160	87.996
2.1151	87.996
2.1143	88.015
2.1134	88.038
2.1125	88.065
2.1117	88.092
2.1108	88.110
2.1100	88.121
2.1091	88.126
2.1082	88.127
2.1074	88.127
2.1065	88.117
2.1057	88.104
2.1048	88.092
2.1040	88.074
2.1031	88.053
2.1023	88.035
2.1014	88.023
2.1005	88.013
2.0997	88.002
2.0988	87.995
2.0980	87.992
2.0971	87.988
2.0963	87.982
2.0955	87.982
2.0946	87.977
2.0938	87.964
2.0929	87.950
2.0921	87.940
2.0912	87.930
2.0904	87.924
2.0895	87.923
2.0887	87.921
2.0879	87.913
2.0870	87.901
2.0862	87.888
2.0853	87.894
2.0845	87.897
2.0837	87.893
2.0828	87.950
2.0820	87.879
2.0812	87.880
2.0803	87.958
2.0760	87.958
2.0720	88.264
2.0680	88.412
2.0640	88.264
2.0600	88.170
2.0560	87.813
2.0520	87.999
2.0480	88.236
2.0440	87.403
2.0400	86.918
2.0360	87.208
2.0320	86.932
2.0280	86.345
2.0240	85.671
2.0200	85.901
2.0160	85.626
2.0120	85.351
2.0080	84.696
2.0040	84.454
2.0000	84.197
1.9960	83.289
1.9920	82.827
1.9880	82.702
1.9840	82.719
1.9800	82.462
1.9760	82.607
1.9720	82.354
1.9680	82.100
1.9640	81.631
1.9600	80.874
1.9560	80.372
1.9520	80.923
1.9480	80.832
1.9440	80.398
1.9400	79.945
1.9360	79.472
1.9320	79.462
1.9280	79.798
1.9240	80.926
1.9200	81.442
1.9160	81.534
1.9120	81.682
1.9080	82.607
1.9040	83.473
1.9000	86.721
1.8960	85.919
1.8920	86.800
1.8880	86.471
1.8840	86.186
1.8800	86.669
1.8760	86.816
1.8720	86.623
1.8680	86.799
1.8640	86.858
1.8600	87.920
1.8560	87.611
1.8520	87.908
1.8480	87.037
1.8440	87.567
1.8400	86.999
1.8360	87.491
1.8320	88.441
1.8280	88.111
1.8240	88.401
1.8200	88.680
1.8160	88.508
1.8120	87.975
1.8080	88.392
1.8040	88.431
1.8000	88.039
1.7960	87.774
1.7920	87.786
1.7880	87.410
1.7840	87.371
1.7800	87.522
1.7760	87.597
1.7720	87.748
1.7680	87.925
1.7640	87.698
1.7600	87.711
1.7560	87.636
1.7520	87.547
1.7480	87.498
1.7440	87.749
1.7400	87.950
1.7360	87.711
1.7320	87.597
1.7280	87.824
1.7240	88.166
1.7200	88.318
1.7160	88.560
1.7120	88.230
1.7080	87.950
1.7040	88.190
1.7000	88.228
1.6960	88.240
1.6920	88.404
1.6880	88.404
1.6840	88.150
1.6800	88.051
1.6760	87.887
1.6720	87.900
1.6680	87.925
1.6640	87.822
1.6600	88.112
1.6560	87.822
1.6520	87.898
1.6480	87.936
1.6440	88.023
1.6400	88.314
1.6360	88.074
1.6320	87.646
1.6280	88.100
1.6240	87.784
1.6200	87.558
1.6160	87.408
1.6120	87.558
1.6080	87.822
1.6040	87.998
1.6000	87.936
1.5960	87.848
1.5920	88.112
1.5880	88.087
1.5840	88.100
1.5800	88.024
1.5760	88.024
1.5720	87.709
1.5680	87.797
1.5640	87.696
1.5600	87.315
1.5560	87.496
1.5520	87.654
1.5480	87.885
1.5440	87.654
1.5400	87.618
1.5360	87.219
1.5320	87.118
1.5280	87.043
1.5240	86.747
1.5200	86.767
1.5160	86.874
1.5120	86.402
1.5080	85.932
1.5040	84.958
1.5000	85.188
1.4960	85.729
1.4920	86.349
1.4880	86.354
1.4840	86.490
1.4800	86.420
1.4760	86.420
1.4720	86.346
1.4680	86.286
1.4640	86.296
1.4600	86.374
1.4560	86.047
1.4520	85.725
1.4480	85.535
1.4440	84.981
1.4400	84.673
1.4360	84.673
1.4320	85.068
1.4280	85.458
1.4240	85.545
1.4200	85.385
1.4160	84.981
1.4120	84.400
1.4080	84.590
1.4040	85.038
1.4000	85.544
1.3960	86.433
1.3920	86.974
1.3880	87.201
1.3840	87.215
1.3800	87.346
1.3760	87.614
1.3720	87.306
1.3680	87.847
1.3640	87.289
1.3600	86.688
1.3560	87.633
1.3520	87.527
1.3480	87.218
1.3440	87.173
1.3400	87.678
1.3360	87.115
1.3320	86.915
1.3280	86.741
1.3240	87.195
1.3200	87.639
1.3160	87.612
1.3120	87.459
1.3080	87.237
1.3040	87.089
1.3000	86.942
1.2960	86.855
1.2920	86.814
1.2880	86.611
1.2840	86.261
1.2800	85.939
1.2760	86.482
1.2720	86.587
1.2680	86.633
1.2640	87.336
1.2600	87.288
1.2560	87.688
1.2520	87.761
1.2480	87.703
1.2440	87.613
1.2400	87.568
1.2360	87.342
1.2320	87.425
1.2280	87.751
1.2240	87.087
1.2200	87.609
1.2160	87.006
1.2120	87.371
1.2080	87.225
1.2040	87.159
1.2000	87.074
1.1960	87.032
1.1920	86.838
1.1880	86.778
1.1840	86.557
1.1800	86.586
1.1760	86.439
1.1720	86.381
1.1680	86.068
1.1640	85.748
1.1600	85.639
1.1560	85.050
1.1520	84.669
1.1480	85.306
1.1440	85.663
1.1400	86.249
1.1360	87.087
1.1320	86.545
1.1280	87.205
1.1240	86.708
1.1200	86.709
1.1160	87.113
1.1120	86.545
1.1080	86.649
1.1040	86.308
1.1000	86.293
1.0960	86.100
1.0920	86.396
1.0880	86.020
1.0840	86.214
1.0800	85.993
1.0760	86.303
1.0720	85.993
1.0680	86.377
1.0640	85.919
1.0600	85.357
1.0560	85.445
1.0520	85.435
1.0480	85.226
1.0440	85.212
1.0400	85.035
1.0360	84.826
1.0320	85.283
1.0280	85.258
1.0240	85.153
1.0200	84.882
1.0160	84.938
1.0120	85.340
1.0080	84.993
1.0040	84.528
1.0000	84.368
0.99600	84.727
0.99200	84.767
0.98800	84.445
0.98400	83.965
0.98000	83.644
0.97600	83.999
0.97200	83.717
0.96800	83.877
0.96400	83.629
0.96000	83.700
0.95600	83.843
0.95200	83.425
0.94800	83.212
0.94400	83.479
0.94000	83.337
0.93600	83.248
0.93200	83.072
0.92800	83.124
0.92400	82.984
0.92000	83.124
0.91600	82.842
0.91200	82.621
0.90800	82.481
0.90400	82.744
0.90000	82.726
0.89600	81.969
0.89200	82.038
0.88800	82.215
0.88400	81.999
0.88000	82.350
0.87600	82.191
0.87200	81.907
0.86800	82.170
0.86400	82.186
0.86000	82.247
0.85600	81.998
0.85200	82.300
0.84800	81.918
0.84400	82.087
0.84000	82.060
0.83600	82.282
0.83200	82.220
0.82800	82.399
0.82400	82.355
0.82000	81.983
0.81600	81.683
0.81200	82.304
0.80800	82.298
0.80400	81.896
0.80000	82.039
0.79900	82.039
0.79800	82.039
0.79700	82.522
0.79600	81.786
0.79500	82.328
0.79400	82.252
0.79300	82.082
0.79200	82.294
0.79100	82.294
0.79000	81.946
0.78900	81.750
0.78800	81.714
0.78700	81.710
0.78600	81.884
0.78500	81.787
0.78400	81.690
0.78300	81.864
0.78200	81.807
0.78100	81.650
0.78000	81.590
0.77900	81.861
0.77800	81.477
0.77700	81.131
0.77600	81.172
0.77500	81.298
0.77400	81.189
0.77300	81.421
0.77200	81.494
0.77100	81.304
0.77000	81.400
0.76900	81.494
0.76800	81.265
0.76700	81.590
0.76600	81.487
0.76500	81.204
0.76400	81.087
0.76300	80.914
0.76200	80.900
0.76100	80.817
0.76000	80.838
0.75900	80.796
0.75800	81.066
0.75700	81.045
0.75600	80.990
0.75500	80.914
0.75400	80.796
0.75300	80.872
0.75200	80.334
0.75100	80.162
0.75000	80.334
0.74900	80.720
0.74800	80.686
0.74700	80.866
0.74600	80.713
0.74500	80.424
0.74400	80.285
0.74300	80.037
0.74200	79.908
0.74100	80.804
0.74000	80.492
0.73900	80.037
0.73800	79.941
0.73700	79.919
0.73600	79.844
0.73500	79.941
0.73400	79.538
0.73300	80.188
0.73200	80.471
0.73100	79.930
0.73000	79.682
0.72900	80.006
0.72800	79.839
0.72700	79.779
0.72600	79.167
0.72500	80.070
0.72400	79.488
0.72300	78.848
0.72200	78.752
0.72100	79.026
0.72000	79.026
0.71900	79.123
0.71800	79.228
0.71700	79.153
0.71600	78.935
0.71500	78.959
0.71400	79.680
0.71300	79.311
0.71200	78.619
0.71100	77.934
0.71000	78.320
0.70900	78.220
0.70800	78.384
0.70700	78.810
0.70600	79.031
0.70500	79.331
0.70400	79.331
0.70300	78.179
0.70200	77.915
0.70100	77.935
0.70000	77.959
0.69900	78.152
0.69800	79.139
0.69700	79.073
0.69600	78.879
0.69500	79.149
0.69400	78.293
0.69300	77.836
0.69200	77.836
0.69100	77.864
0.69000	77.588
0.68900	78.067
0.68800	78.140
0.68700	78.164
0.68600	78.364
0.68500	78.192
0.68400	77.439
0.68300	77.490
0.68200	77.818
0.68100	77.465
0.68000	76.938
0.67900	76.614
0.67800	76.415
0.67700	77.266
0.67600	77.215
0.67500	77.089
0.67400	76.964
0.67300	76.788
0.67200	76.515
0.67100	77.265
0.67000	76.588
0.66900	76.364
0.66800	76.964
0.66700	77.014
0.66600	76.661
0.66500	76.487
0.66400	76.238
0.66300	76.637
0.66200	76.535
0.66100	76.258
0.66000	75.431
0.65900	75.350
0.65800	75.877
0.65700	76.204
0.65600	75.952
0.65500	75.351
0.65400	75.648
0.65300	75.473
0.65200	75.594
0.65100	75.770
0.65000	75.647
0.64900	75.351
0.64800	75.149
0.64700	75.372
0.64600	75.345
0.64500	75.068
0.64400	74.847
0.64300	74.847
0.64200	74.691
0.64100	74.940
0.64000	75.345
0.63900	75.142
0.63800	74.534
0.63700	74.186
0.63600	74.113
0.63500	73.940
0.63400	73.811
0.63300	73.609
0.63200	73.681
0.63100	73.436
0.63000	73.871
0.62900	73.871
0.62800	73.973
0.62700	73.754
0.62600	73.552
0.62500	73.147
0.62400	72.916
0.62300	73.204
0.62200	73.001
0.62100	72.929
0.62000	72.798
0.61900	72.900
0.61800	72.972
0.61700	72.726
0.61600	72.350
0.61500	72.106
0.61400	72.005
0.61300	71.863
0.61200	71.934
0.61100	71.631
0.61000	71.529
0.60900	71.529
0.60800	71.428
0.60700	71.397
0.60600	71.234
0.60500	71.102
0.60400	70.797
0.60300	70.732
0.60200	70.607
0.60100	70.376
0.60000	69.961
0.59900	69.892
0.59800	69.658
0.59700	69.489
0.59600	69.975
0.59500	69.876
0.59400	69.632
0.59300	69.702
0.59200	69.356
0.59100	68.840
0.59000	68.633
0.58900	69.012
0.58800	68.772
0.58700	68.427
0.58600	68.324
0.58500	68.016
0.58400	68.221
0.58300	67.910
0.58200	67.296
0.58100	67.531
0.58000	66.880
0.57900	66.807
0.57800	66.880
0.57700	66.570
0.57600	66.261
0.57500	66.261
0.57400	66.059
0.57300	65.843
0.57200	65.122
0.57100	64.947
0.57000	64.973
0.56900	64.503
0.56800	64.135
0.56700	64.034
0.56600	63.894
0.56500	63.589
0.56400	63.386
0.56300	62.918
0.56200	62.614
0.56100	62.433
0.56000	62.007
0.55900	59.325
0.55800	60.822
0.55700	60.455
0.55600	59.919
0.55500	59.695
0.55400	59.404
0.55300	59.170
0.55200	59.001
0.55100	58.850
0.55000	58.792
0.54900	58.961
0.54800	58.862
0.54700	58.467
0.54600	58.607
0.54500	57.667
0.54400	57.613
0.54300	57.789
0.54200	57.449
0.54100	57.383
0.54000	56.998
0.53900	56.889
0.53800	56.811
0.53700	56.752
0.53600	56.433
0.53500	56.234
0.53400	56.099
0.53300	55.883
0.53200	55.668
0.53100	55.325
0.53000	55.485
0.52900	55.539
0.52800	55.393
0.52700	54.936
0.52600	54.778
0.52500	54.691
0.52400	54.656
0.52300	54.034
0.52200	53.884
0.52100	53.987
0.52000	54.048
0.51900	54.109
0.51800	53.545
0.51700	53.394
0.51600	53.451
0.51500	53.094
0.51400	52.599
0.51300	52.502
0.51200	52.209
0.51100	51.614
0.51000	52.707
0.50900	52.607
0.50800	51.617
0.50700	52.012
0.50600	51.423
0.50500	51.518
0.50400	51.665
0.50300	51.172
0.50200	51.415
0.50100	50.827
0.50000	50.875
0.49900	50.774
0.49800	50.483
0.49700	50.675
0.49600	50.287
0.49500	50.232
0.49400	50.143
0.49300	49.282
0.49200	49.604
0.49100	49.695
0.49000	49.638
0.48900	49.404
0.48800	48.964
0.48700	48.872
0.48600	48.429
0.48500	48.429
0.48400	48.427
0.48300	48.118
0.48200	48.735
0.48100	48.551
0.48000	48.315
0.47900	47.787
0.47800	47.377
0.47700	47.377
0.47600	47.466
0.47500	47.224
0.47400	47.278
0.47300	46.949
0.47200	46.851
0.47100	46.644
0.47000	46.754
0.46900	46.331
0.46800	46.233
0.46700	46.122
0.46600	45.742
0.46500	45.809
0.46400	45.615
0.46300	45.799
0.46200	45.238
0.46100	45.477
0.46000	45.100
0.45900	45.070
0.45800	45.269
0.45700	44.726
0.45600	44.777
0.45500	44.180
0.45400	44.326
0.45300	44.033
0.45200	43.912
0.45100	43.915
0.45000	44.121
0.44900	43.977
0.44800	43.567
0.44700	43.611
0.44600	43.338
0.44500	42.828
0.44400	42.414
0.44300	42.744
0.44200	42.780
0.44100	42.481
0.44000	42.539
0.43900	42.088
0.43800	42.015
0.43700	41.797
0.43600	41.158
0.43500	41.258
0.43400	41.232
0.43300	41.206
0.43200	40.918
0.43100	40.715
0.43000	40.372
0.42900	40.809
0.42800	40.378
0.42700	40.066
0.42600	39.887
0.42500	39.665
0.42400	39.356
0.42300	39.334
0.42200	38.945
0.42100	38.981
0.42000	39.135
0.41900	38.772
0.41800	38.557
0.41700	38.453
0.41600	38.141
0.41500	38.349
0.41400	38.172
0.41300	37.370
0.41200	37.654
0.41100	37.817
0.41000	37.303
0.40900	37.027
0.40800	37.056
0.40700	37.156
0.40600	36.845
0.40500	36.666
0.40400	36.591
0.40300	36.491
0.40200	36.358
0.40100	36.114
0.40000	36.035
0.0000	
