Name:  Dark brown fine sandy loam 
Type:  Soils
Class:  Inceptisol
Subclass:  Haplumbrept
Particle Size:  see additional information
Sample No.:  86P4561
Owner:  JHU
Wavelength range:  All
Origin:  Haywood Co. NC. via USDA Soil Conservation service.

Description:  Dark brown fine sandy loam (sandy-skeletal, mixed, 
mesic Fluventic haplumbrept).




Measurement:  Directional (10 degree) hemispherical reflectance
First Column:  X
Second Column:  Y
X Units:  Wavelength (micrometers)
Y Units:  Reflectance (percent)
First X Value:  14.0112
Last X Value:  0.4000
Number of X Values:  2844
Additional information:  86P4561a.txt

14.0112	1.5186
13.9734	1.5566
13.9359	1.5720
13.8985	1.5886
13.8614	1.6008
13.8244	1.5889
13.7876	1.5688
13.7511	1.5691
13.7147	1.5820
13.6785	1.5986
13.6425	1.6165
13.6067	1.6401
13.5711	1.6533
13.5356	1.6565
13.5004	1.6560
13.4653	1.6558
13.4304	1.6538
13.3957	1.6526
13.3612	1.6553
13.3269	1.6589
13.2927	1.6653
13.2587	1.6755
13.2249	1.6833
13.1912	1.6860
13.1578	1.6877
13.1244	1.6946
13.0913	1.7009
13.0583	1.7229
13.0255	1.7600
12.9929	1.8015
12.9604	1.8518
12.9281	1.9138
12.8959	1.9853
12.8639	2.0576
12.8321	2.1118
12.8004	2.1367
12.7688	2.1211
12.7375	2.0671
12.7063	1.9919
12.6752	1.9250
12.6443	1.8850
12.6135	1.8938
12.5829	1.9397
12.5524	1.9968
12.5221	2.0415
12.4919	2.0525
12.4619	2.0098
12.4320	1.9238
12.4023	1.8096
12.3727	1.6934
12.3432	1.5915
12.3139	1.5232
12.2847	1.5002
12.2557	1.5178
12.2268	1.5540
12.1980	1.6006
12.1694	1.6494
12.1409	1.6960
12.1125	1.7314
12.0843	1.7583
12.0562	1.7864
12.0282	1.8081
12.0003	1.8232
11.9726	1.8418
11.9450	1.8735
11.9176	1.9233
11.8903	1.9724
11.8630	2.0222
11.8360	2.0713
11.8090	2.1094
11.7822	2.1404
11.7555	2.1697
11.7289	2.2007
11.7024	2.2329
11.6760	2.2678
11.6498	2.3066
11.6237	2.3430
11.5977	2.3772
11.5718	2.3984
11.5460	2.4187
11.5203	2.4390
11.4948	2.4558
11.4694	2.4800
11.4440	2.5081
11.4188	2.5349
11.3937	2.5598
11.3688	2.5737
11.3439	2.5884
11.3191	2.6018
11.2944	2.6125
11.2699	2.6211
11.2454	2.6294
11.2211	2.6428
11.1969	2.6655
11.1727	2.6926
11.1487	2.7175
11.1248	2.7368
11.1010	2.7573
11.0773	2.7690
11.0536	2.7727
11.0301	2.7734
11.0067	2.7661
10.9834	2.7524
10.9602	2.7380
10.9370	2.7214
10.9140	2.7107
10.8911	2.6975
10.8682	2.6912
10.8455	2.6902
10.8229	2.6894
10.8003	2.6877
10.7779	2.6899
10.7555	2.6926
10.7332	2.6987
10.7111	2.7046
10.6890	2.7148
10.6670	2.7297
10.6451	2.7488
10.6233	2.7656
10.6015	2.7837
10.5799	2.8096
10.5584	2.8469
10.5369	2.8960
10.5155	2.9551
10.4942	3.0183
10.4730	3.0823
10.4519	3.1399
10.4309	3.1909
10.4099	3.2385
10.3891	3.2849
10.3683	3.3308
10.3476	3.3750
10.3270	3.4138
10.3065	3.4492
10.2860	3.4829
10.2657	3.5173
10.2454	3.5508
10.2252	3.5830
10.2050	3.6111
10.1850	3.6394
10.1650	3.6704
10.1451	3.6982
10.1253	3.7204
10.1056	3.7429
10.0859	3.7656
10.0663	3.7805
10.0468	3.7871
10.0274	3.8083
10.0080	3.8533
9.9887	3.9082
9.9695	3.9704
9.9504	4.0444
9.9313	4.1152
9.9123	4.1660
9.8934	4.1990
9.8746	4.2212
9.8558	4.2353
9.8371	4.2456
9.8185	4.2554
9.7999	4.2729
9.7814	4.3003
9.7630	4.3420
9.7447	4.3962
9.7264	4.4519
9.7082	4.5034
9.6900	4.5493
9.6719	4.5867
9.6539	4.6101
9.6360	4.6191
9.6181	4.6099
9.6003	4.5766
9.5825	4.5334
9.5649	4.4888
9.5472	4.4463
9.5297	4.4141
9.5122	4.3911
9.4948	4.3743
9.4774	4.3662
9.4601	4.3706
9.4429	4.4111
9.4257	4.4885
9.4086	4.5962
9.3916	4.7273
9.3746	4.8716
9.3577	5.0068
9.3408	5.1250
9.3240	5.2156
9.3073	5.2822
9.2906	5.3252
9.2740	5.3442
9.2574	5.3435
9.2409	5.3381
9.2245	5.3276
9.2081	5.3135
9.1918	5.2969
9.1755	5.2834
9.1593	5.2690
9.1431	5.2432
9.1270	5.2090
9.1110	5.1772
9.0950	5.1438
9.0791	5.1218
9.0632	5.1025
9.0474	5.0759
9.0316	5.0447
9.0159	5.0127
9.0003	4.9834
8.9847	4.9568
8.9691	4.9365
8.9536	4.9326
8.9382	4.9372
8.9228	4.9441
8.9075	4.9578
8.8922	4.9746
8.8770	4.9866
8.8618	4.9905
8.8467	4.9849
8.8316	4.9663
8.8166	4.9451
8.8016	4.9202
8.7867	4.8882
8.7718	4.8479
8.7570	4.7998
8.7423	4.7561
8.7275	4.7129
8.7129	4.6496
8.6982	4.5515
8.6837	4.4048
8.6692	4.2226
8.6547	4.0425
8.6403	3.9084
8.6259	3.8691
8.6116	3.9451
8.5973	4.1072
8.5830	4.3057
8.5688	4.4929
8.5547	4.6472
8.5406	4.7558
8.5266	4.8227
8.5126	4.8635
8.4986	4.8972
8.4847	4.9302
8.4708	4.9617
8.4570	4.9878
8.4432	5.0163
8.4295	5.0454
8.4158	5.0720
8.4022	5.0896
8.3886	5.1064
8.3750	5.1308
8.3615	5.1460
8.3481	5.1467
8.3347	5.1450
8.3213	5.1453
8.3079	5.1382
8.2946	5.1213
8.2814	5.0976
8.2682	5.0710
8.2550	5.0300
8.2419	4.9741
8.2288	4.9092
8.2158	4.8379
8.2028	4.7541
8.1898	4.6594
8.1769	4.5478
8.1640	4.4211
8.1512	4.2783
8.1384	4.1194
8.1256	3.9556
8.1129	3.7917
8.1002	3.6306
8.0876	3.4773
8.0750	3.3320
8.0624	3.1970
8.0499	3.0727
8.0374	2.9592
8.0250	2.8520
8.0126	2.7512
8.0002	2.6597
7.9879	2.5762
7.9756	2.5017
7.9634	2.4338
7.9512	2.3684
7.9390	2.3054
7.9268	2.2427
7.9147	2.1858
7.9027	2.1338
7.8906	2.0842
7.8786	2.0391
7.8667	1.9990
7.8548	1.9614
7.8429	1.9343
7.8310	1.9185
7.8192	1.9111
7.8075	1.9043
7.7957	1.8989
7.7840	1.8926
7.7723	1.8840
7.7607	1.8711
7.7491	1.8665
7.7375	1.8652
7.7260	1.8574
7.7145	1.8435
7.7031	1.8306
7.6916	1.8123
7.6802	1.7873
7.6689	1.7676
7.6575	1.7605
7.6462	1.7576
7.6350	1.7515
7.6238	1.7446
7.6126	1.7415
7.6014	1.7344
7.5903	1.7229
7.5792	1.7136
7.5681	1.7053
7.5571	1.6960
7.5461	1.6880
7.5351	1.6824
7.5242	1.6821
7.5133	1.6765
7.5024	1.6714
7.4916	1.6689
7.4807	1.6655
7.4700	1.6621
7.4592	1.6609
7.4485	1.6597
7.4378	1.6597
7.4272	1.6577
7.4165	1.6609
7.4059	1.6643
7.3954	1.6633
7.3848	1.6577
7.3743	1.6484
7.3639	1.6340
7.3534	1.6228
7.3430	1.6125
7.3326	1.6035
7.3223	1.5957
7.3119	1.5906
7.3016	1.5825
7.2914	1.5767
7.2811	1.5762
7.2709	1.5779
7.2607	1.5723
7.2506	1.5627
7.2404	1.5571
7.2303	1.5564
7.2203	1.5583
7.2102	1.5666
7.2002	1.5781
7.1902	1.5850
7.1803	1.5825
7.1703	1.5781
7.1604	1.5715
7.1506	1.5698
7.1407	1.5784
7.1309	1.5908
7.1211	1.6028
7.1113	1.6160
7.1016	1.6216
7.0919	1.6216
7.0822	1.6174
7.0725	1.6099
7.0629	1.6030
7.0533	1.5998
7.0437	1.6028
7.0341	1.6155
7.0246	1.6299
7.0151	1.6475
7.0056	1.6672
6.9962	1.6811
6.9867	1.6887
6.9773	1.6943
6.9679	1.6997
6.9586	1.7102
6.9493	1.7275
6.9400	1.7500
6.9307	1.7722
6.9214	1.7900
6.9122	1.8000
6.9030	1.8064
6.8938	1.8059
6.8847	1.8005
6.8755	1.8008
6.8664	1.8091
6.8573	1.8249
6.8483	1.8457
6.8393	1.8706
6.8302	1.9006
6.8213	1.9258
6.8123	1.9438
6.8034	1.9617
6.7944	1.9917
6.7855	2.0339
6.7767	2.0859
6.7678	2.1448
6.7590	2.1997
6.7502	2.2414
6.7414	2.2681
6.7327	2.2800
6.7239	2.2871
6.7152	2.2881
6.7065	2.2873
6.6979	2.2927
6.6892	2.2974
6.6806	2.3005
6.6720	2.2974
6.6634	2.2754
6.6549	2.2434
6.6464	2.2080
6.6378	2.1780
6.6294	2.1633
6.6209	2.1609
6.6124	2.1604
6.6040	2.1536
6.5956	2.1279
6.5872	2.0989
6.5789	2.0757
6.5705	2.0586
6.5622	2.0530
6.5539	2.0569
6.5456	2.0581
6.5374	2.0561
6.5292	2.0452
6.5209	2.0259
6.5128	1.9980
6.5046	1.9680
6.4964	1.9456
6.4883	1.9355
6.4802	1.9348
6.4721	1.9434
6.4640	1.9539
6.4560	1.9543
6.4480	1.9421
6.4399	1.9138
6.4320	1.8784
6.4240	1.8540
6.4160	1.8430
6.4081	1.8452
6.4002	1.8579
6.3923	1.8716
6.3844	1.8777
6.3766	1.8655
6.3687	1.8425
6.3609	1.8203
6.3531	1.7998
6.3454	1.7869
6.3376	1.7871
6.3299	1.7930
6.3221	1.7976
6.3144	1.7974
6.3068	1.7910
6.2991	1.7793
6.2914	1.7595
6.2838	1.7358
6.2762	1.7153
6.2686	1.6985
6.2611	1.6816
6.2535	1.6682
6.2460	1.6597
6.2385	1.6553
6.2310	1.6545
6.2235	1.6536
6.2160	1.6504
6.2086	1.6431
6.2011	1.6289
6.1937	1.6121
6.1863	1.5908
6.1790	1.5713
6.1716	1.5596
6.1643	1.5513
6.1570	1.5444
6.1496	1.5400
6.1424	1.5364
6.1351	1.5325
6.1278	1.5276
6.1206	1.5227
6.1134	1.5222
6.1062	1.5249
6.0990	1.5249
6.0918	1.5251
6.0847	1.5234
6.0776	1.5161
6.0704	1.4971
6.0633	1.4763
6.0563	1.4639
6.0492	1.4641
6.0421	1.4763
6.0351	1.4954
6.0281	1.5212
6.0211	1.5491
6.0141	1.5635
6.0071	1.5701
6.0002	1.5730
5.9932	1.5796
5.9863	1.5974
5.9794	1.6191
5.9725	1.6438
5.9657	1.6704
5.9588	1.6914
5.9520	1.7065
5.9451	1.7214
5.9383	1.7427
5.9315	1.7759
5.9247	1.8201
5.9180	1.8613
5.9112	1.8962
5.9045	1.9211
5.8978	1.9397
5.8911	1.9653
5.8844	1.9985
5.8777	2.0444
5.8711	2.1079
5.8644	2.1768
5.8578	2.2380
5.8512	2.2861
5.8446	2.3218
5.8380	2.3472
5.8314	2.3684
5.8249	2.3979
5.8184	2.4468
5.8118	2.5095
5.8053	2.5762
5.7988	2.6414
5.7923	2.6968
5.7859	2.7322
5.7794	2.7632
5.7730	2.8030
5.7666	2.8581
5.7602	2.9309
5.7538	3.0200
5.7474	3.1133
5.7410	3.2036
5.7347	3.2832
5.7283	3.3581
5.7220	3.4370
5.7157	3.5225
5.7094	3.6164
5.7031	3.7202
5.6969	3.8223
5.6906	3.9160
5.6844	4.0061
5.6782	4.0871
5.6719	4.1614
5.6657	4.2251
5.6596	4.2722
5.6534	4.3174
5.6472	4.3662
5.6411	4.4238
5.6349	4.4963
5.6288	4.5815
5.6227	4.6753
5.6166	4.7654
5.6106	4.8452
5.6045	4.9226
5.5984	4.9944
5.5924	5.0657
5.5864	5.1431
5.5804	5.2307
5.5744	5.3271
5.5684	5.4265
5.5624	5.5283
5.5564	5.6284
5.5505	5.7197
5.5445	5.8078
5.5386	5.8957
5.5327	5.9807
5.5268	6.0622
5.5209	6.1411
5.5151	6.2187
5.5092	6.2961
5.5033	6.3733
5.4975	6.4436
5.4917	6.5063
5.4859	6.5613
5.4801	6.6076
5.4743	6.6533
5.4685	6.7043
5.4628	6.7644
5.4570	6.8308
5.4513	6.8913
5.4455	6.9419
5.4398	6.9697
5.4341	6.9702
5.4284	6.9575
5.4228	6.9441
5.4171	6.9392
5.4114	6.9436
5.4058	6.9521
5.4002	6.9592
5.3945	6.9551
5.3889	6.9402
5.3833	6.9180
5.3778	6.8933
5.3722	6.8703
5.3666	6.8503
5.3611	6.8376
5.3555	6.8357
5.3500	6.8493
5.3445	6.8794
5.3390	6.9214
5.3335	6.9673
5.3280	7.0105
5.3225	7.0478
5.3171	7.0825
5.3116	7.1128
5.3062	7.1426
5.3008	7.1782
5.2954	7.2175
5.2900	7.2556
5.2846	7.2959
5.2792	7.3410
5.2738	7.3935
5.2684	7.4490
5.2631	7.5090
5.2578	7.5754
5.2524	7.6418
5.2471	7.7058
5.2418	7.7720
5.2365	7.8398
5.2312	7.9048
5.2260	7.9614
5.2207	8.0171
5.2154	8.0737
5.2102	8.1277
5.2050	8.1784
5.1998	8.2261
5.1945	8.2702
5.1893	8.3042
5.1842	8.3254
5.1790	8.3413
5.1738	8.3557
5.1686	8.3691
5.1635	8.3801
5.1584	8.3921
5.1532	8.4087
5.1481	8.4262
5.1430	8.4433
5.1379	8.4599
5.1328	8.4763
5.1277	8.4961
5.1227	8.5166
5.1176	8.5368
5.1126	8.5591
5.1075	8.5796
5.1025	8.5947
5.0975	8.6008
5.0925	8.6011
5.0875	8.6008
5.0825	8.5971
5.0775	8.5952
5.0726	8.6008
5.0676	8.6123
5.0627	8.6235
5.0577	8.6382
5.0528	8.6614
5.0479	8.6828
5.0430	8.6946
5.0380	8.7036
5.0332	8.7104
5.0283	8.7151
5.0234	8.7195
5.0185	8.7265
5.0137	8.7402
5.0088	8.7522
5.0040	8.7595
4.9992	8.7710
4.9944	8.7888
4.9896	8.8149
4.9848	8.8491
4.9800	8.8872
4.9752	8.9328
4.9704	8.9829
4.9657	9.0322
4.9609	9.0869
4.9562	9.1416
4.9514	9.1902
4.9467	9.2322
4.9420	9.2666
4.9373	9.2937
4.9326	9.3215
4.9279	9.3598
4.9232	9.4111
4.9186	9.4731
4.9139	9.5437
4.9092	9.6257
4.9046	9.7175
4.9000	9.8152
4.8953	9.9197
4.8907	10.0271
4.8861	10.1313
4.8815	10.2285
4.8769	10.3169
4.8723	10.3960
4.8678	10.4702
4.8632	10.5395
4.8586	10.6015
4.8541	10.6582
4.8495	10.7155
4.8450	10.7729
4.8405	10.8259
4.8360	10.8708
4.8315	10.9133
4.8270	10.9543
4.8225	10.9936
4.8180	11.0346
4.8135	11.0793
4.8090	11.1252
4.8046	11.1677
4.8001	11.2021
4.7957	11.2319
4.7913	11.2619
4.7868	11.2917
4.7824	11.3227
4.7780	11.3579
4.7736	11.3938
4.7692	11.4345
4.7648	11.4748
4.7605	11.5068
4.7561	11.5317
4.7517	11.5537
4.7474	11.5786
4.7431	11.6035
4.7387	11.6257
4.7344	11.6543
4.7301	11.6872
4.7258	11.7158
4.7215	11.7375
4.7172	11.7534
4.7129	11.7622
4.7086	11.7632
4.7043	11.7570
4.7000	11.7480
4.6958	11.7353
4.6915	11.7236
4.6873	11.7170
4.6831	11.7168
4.6788	11.7285
4.6746	11.7607
4.6704	11.8139
4.6662	11.8752
4.6620	11.9326
4.6578	11.9922
4.6536	12.0559
4.6495	12.1162
4.6453	12.1770
4.6411	12.2392
4.6370	12.3025
4.6328	12.3598
4.6287	12.4082
4.6246	12.4553
4.6205	12.5039
4.6163	12.5507
4.6122	12.5969
4.6081	12.6438
4.6040	12.6926
4.6000	12.7424
4.5959	12.7812
4.5918	12.8127
4.5877	12.8425
4.5837	12.8667
4.5796	12.8852
4.5756	12.9038
4.5716	12.9260
4.5675	12.9475
4.5635	12.9638
4.5595	12.9785
4.5555	12.9880
4.5515	12.9904
4.5475	12.9882
4.5435	12.9824
4.5395	12.9773
4.5356	12.9731
4.5316	12.9663
4.5276	12.9507
4.5237	12.9204
4.5197	12.8791
4.5158	12.8342
4.5119	12.7876
4.5080	12.7412
4.5040	12.7007
4.5001	12.6674
4.4962	12.6428
4.4923	12.6259
4.4884	12.6198
4.4846	12.6272
4.4807	12.6418
4.4768	12.6528
4.4730	12.6594
4.4691	12.6628
4.4652	12.6696
4.4614	12.6899
4.4576	12.7180
4.4537	12.7509
4.4499	12.7929
4.4461	12.8391
4.4423	12.8803
4.4385	12.9128
4.4347	12.9423
4.4309	12.9773
4.4271	13.0092
4.4233	13.0363
4.4196	13.0703
4.4158	13.1108
4.4120	13.1494
4.4083	13.1828
4.4045	13.2185
4.4008	13.2575
4.3971	13.2964
4.3934	13.3337
4.3896	13.3706
4.3859	13.4099
4.3822	13.4477
4.3785	13.4829
4.3748	13.5202
4.3711	13.5522
4.3674	13.5793
4.3638	13.6042
4.3601	13.6189
4.3564	13.6274
4.3528	13.6345
4.3491	13.6450
4.3455	13.6591
4.3418	13.6743
4.3382	13.6931
4.3346	13.7104
4.3310	13.7209
4.3273	13.7236
4.3237	13.7187
4.3201	13.7094
4.3165	13.6972
4.3129	13.6821
4.3094	13.6631
4.3058	13.6425
4.3022	13.6242
4.2986	13.6023
4.2951	13.5776
4.2915	13.5554
4.2880	13.5400
4.2844	13.5317
4.2809	13.5290
4.2774	13.5317
4.2738	13.5442
4.2703	13.5610
4.2668	13.5783
4.2633	13.6010
4.2598	13.6230
4.2563	13.6352
4.2528	13.6323
4.2493	13.6164
4.2458	13.5952
4.2424	13.5681
4.2389	13.5388
4.2354	13.5183
4.2320	13.5075
4.2285	13.5056
4.2251	13.5134
4.2216	13.5305
4.2182	13.5500
4.2148	13.5625
4.2113	13.5720
4.2079	13.5808
4.2045	13.5827
4.2011	13.5827
4.1977	13.5815
4.1943	13.5810
4.1909	13.5761
4.1875	13.5627
4.1841	13.5542
4.1808	13.5603
4.1774	13.5683
4.1740	13.5730
4.1707	13.5688
4.1673	13.5586
4.1640	13.5410
4.1606	13.5119
4.1573	13.4887
4.1540	13.4824
4.1506	13.4792
4.1473	13.4714
4.1440	13.4611
4.1407	13.4502
4.1374	13.4392
4.1341	13.4270
4.1308	13.4167
4.1275	13.4079
4.1242	13.3940
4.1209	13.3777
4.1177	13.3608
4.1144	13.3459
4.1111	13.3322
4.1079	13.3203
4.1046	13.3108
4.1014	13.3022
4.0981	13.2893
4.0949	13.2729
4.0917	13.2536
4.0884	13.2324
4.0852	13.2080
4.0820	13.1894
4.0788	13.1833
4.0756	13.1809
4.0724	13.1770
4.0692	13.1692
4.0660	13.1530
4.0628	13.1320
4.0596	13.1057
4.0565	13.0791
4.0533	13.0534
4.0501	13.0261
4.0470	13.0002
4.0438	12.9763
4.0406	12.9575
4.0375	12.9460
4.0344	12.9331
4.0312	12.9174
4.0281	12.8977
4.0250	12.8718
4.0218	12.8447
4.0187	12.8205
4.0156	12.8010
4.0125	12.7824
4.0094	12.7646
4.0063	12.7487
4.0032	12.7339
4.0001	12.7185
3.9970	12.7072
3.9940	12.7016
3.9909	12.6936
3.9878	12.6828
3.9847	12.6718
3.9817	12.6572
3.9786	12.6447
3.9756	12.6318
3.9725	12.6154
3.9695	12.6003
3.9665	12.5861
3.9634	12.5705
3.9604	12.5559
3.9574	12.5373
3.9544	12.5183
3.9513	12.4987
3.9483	12.4802
3.9453	12.4675
3.9423	12.4638
3.9393	12.4582
3.9363	12.4448
3.9333	12.4265
3.9304	12.4050
3.9274	12.3864
3.9244	12.3720
3.9214	12.3618
3.9185	12.3557
3.9155	12.3427
3.9126	12.3193
3.9096	12.2942
3.9067	12.2678
3.9037	12.2424
3.9008	12.2190
3.8979	12.1965
3.8949	12.1775
3.8920	12.1594
3.8891	12.1430
3.8862	12.1284
3.8833	12.1074
3.8804	12.0827
3.8775	12.0578
3.8746	12.0334
3.8717	12.0119
3.8688	11.9917
3.8659	11.9697
3.8630	11.9433
3.8601	11.9067
3.8573	11.8694
3.8544	11.8381
3.8515	11.8130
3.8487	11.7932
3.8458	11.7778
3.8430	11.7619
3.8401	11.7429
3.8373	11.7165
3.8344	11.6889
3.8316	11.6589
3.8288	11.6201
3.8259	11.5796
3.8231	11.5442
3.8203	11.5122
3.8175	11.4851
3.8147	11.4616
3.8119	11.4450
3.8091	11.4243
3.8063	11.3913
3.8035	11.3550
3.8007	11.3208
3.7979	11.2898
3.7951	11.2588
3.7924	11.2309
3.7896	11.2107
3.7868	11.1887
3.7841	11.1618
3.7813	11.1330
3.7785	11.0991
3.7758	11.0632
3.7730	11.0239
3.7703	10.9795
3.7676	10.9306
3.7648	10.8872
3.7621	10.8525
3.7594	10.8215
3.7566	10.7915
3.7539	10.7636
3.7512	10.7348
3.7485	10.6987
3.7458	10.6582
3.7431	10.6242
3.7404	10.5876
3.7377	10.5468
3.7350	10.5110
3.7323	10.4775
3.7296	10.4389
3.7269	10.3955
3.7242	10.3581
3.7216	10.3291
3.7189	10.2932
3.7162	10.2575
3.7136	10.2341
3.7109	10.2094
3.7083	10.1731
3.7056	10.1291
3.7030	10.0906
3.7003	10.0564
3.6977	10.0202
3.6950	9.9883
3.6924	9.9619
3.6898	9.9353
3.6872	9.9011
3.6845	9.8608
3.6819	9.8220
3.6793	9.7793
3.6767	9.7356
3.6741	9.6985
3.6715	9.6699
3.6689	9.6416
3.6663	9.6069
3.6637	9.5715
3.6611	9.5371
3.6585	9.4988
3.6560	9.4577
3.6534	9.4162
3.6508	9.3762
3.6482	9.3344
3.6457	9.2995
3.6431	9.2715
3.6406	9.2422
3.6380	9.2116
3.6355	9.1806
3.6329	9.1433
3.6304	9.0981
3.6278	9.0473
3.6253	8.9963
3.6227	8.9526
3.6202	8.9111
3.6177	8.8782
3.6152	8.8559
3.6127	8.8308
3.6101	8.7939
3.6076	8.7453
3.6051	8.6953
3.6026	8.6443
3.6001	8.5918
3.5976	8.5517
3.5951	8.5180
3.5926	8.4853
3.5901	8.4558
3.5876	8.4216
3.5852	8.3825
3.5827	8.3379
3.5802	8.2927
3.5777	8.2539
3.5753	8.2136
3.5728	8.1767
3.5704	8.1404
3.5679	8.0967
3.5654	8.0520
3.5630	8.0054
3.5605	7.9516
3.5581	7.8974
3.5557	7.8459
3.5532	7.8005
3.5508	7.7615
3.5484	7.7292
3.5459	7.6994
3.5435	7.6584
3.5411	7.6057
3.5387	7.5444
3.5363	7.4736
3.5338	7.3989
3.5314	7.3269
3.5290	7.2580
3.5266	7.1897
3.5242	7.1179
3.5218	7.0344
3.5195	6.9350
3.5171	6.8181
3.5147	6.6846
3.5123	6.5478
3.5099	6.4201
3.5075	6.3144
3.5052	6.2439
3.5028	6.2085
3.5004	6.2038
3.4981	6.2197
3.4957	6.2412
3.4934	6.2593
3.4910	6.2590
3.4887	6.2444
3.4863	6.2292
3.4840	6.2063
3.4816	6.1782
3.4793	6.1557
3.4770	6.1360
3.4746	6.1142
3.4723	6.0859
3.4700	6.0576
3.4677	6.0290
3.4653	5.9931
3.4630	5.9546
3.4607	5.9153
3.4584	5.8728
3.4561	5.8308
3.4538	5.7873
3.4515	5.7412
3.4492	5.6963
3.4469	5.6577
3.4446	5.6140
3.4423	5.5664
3.4400	5.5144
3.4378	5.4492
3.4355	5.3723
3.4332	5.2837
3.4309	5.1894
3.4287	5.1064
3.4264	5.0361
3.4241	4.9846
3.4219	4.9441
3.4196	4.9089
3.4174	4.8818
3.4151	4.8640
3.4129	4.8608
3.4106	4.8774
3.4084	4.9021
3.4061	4.9253
3.4039	4.9441
3.4017	4.9536
3.3994	4.9541
3.3972	4.9624
3.3950	4.9849
3.3928	5.0110
3.3906	5.0310
3.3883	5.0517
3.3861	5.0715
3.3839	5.0771
3.3817	5.0698
3.3795	5.0586
3.3773	5.0478
3.3751	5.0378
3.3729	5.0320
3.3707	5.0359
3.3685	5.0481
3.3663	5.0644
3.3641	5.0779
3.3620	5.0830
3.3598	5.0832
3.3576	5.0852
3.3554	5.0864
3.3533	5.0864
3.3511	5.0891
3.3489	5.0986
3.3468	5.1028
3.3446	5.0935
3.3425	5.0791
3.3403	5.0742
3.3382	5.0710
3.3360	5.0679
3.3339	5.0696
3.3317	5.0674
3.3296	5.0517
3.3274	5.0298
3.3253	5.0068
3.3232	4.9839
3.3210	4.9495
3.3189	4.9116
3.3168	4.8874
3.3147	4.8669
3.3126	4.8479
3.3104	4.8415
3.3083	4.8440
3.3062	4.8440
3.3041	4.8254
3.3020	4.7944
3.2999	4.7712
3.2978	4.7529
3.2957	4.7331
3.2936	4.7202
3.2915	4.7126
3.2894	4.7036
3.2874	4.6841
3.2853	4.6565
3.2832	4.6306
3.2811	4.5986
3.2790	4.5615
3.2770	4.5281
3.2749	4.4961
3.2728	4.4631
3.2708	4.4331
3.2687	4.4126
3.2666	4.4011
3.2646	4.3882
3.2625	4.3738
3.2605	4.3584
3.2584	4.3389
3.2564	4.3159
3.2543	4.2942
3.2523	4.2737
3.2503	4.2519
3.2482	4.2319
3.2462	4.2114
3.2442	4.1841
3.2421	4.1543
3.2401	4.1350
3.2381	4.1172
3.2361	4.0925
3.2340	4.0701
3.2320	4.0564
3.2300	4.0432
3.2280	4.0278
3.2260	4.0188
3.2240	4.0115
3.2220	3.9980
3.2200	3.9866
3.2180	3.9787
3.2160	3.9624
3.2140	3.9360
3.2120	3.9150
3.2100	3.8996
3.2080	3.8811
3.2060	3.8581
3.2041	3.8406
3.2021	3.8254
3.2001	3.8071
3.1981	3.7920
3.1961	3.7815
3.1942	3.7732
3.1922	3.7580
3.1902	3.7353
3.1883	3.7146
3.1863	3.6963
3.1844	3.6787
3.1824	3.6672
3.1805	3.6619
3.1785	3.6575
3.1766	3.6453
3.1746	3.6299
3.1727	3.6201
3.1707	3.6050
3.1688	3.5891
3.1669	3.5725
3.1649	3.5542
3.1630	3.5320
3.1611	3.5090
3.1591	3.4885
3.1572	3.4822
3.1553	3.4795
3.1534	3.4770
3.1515	3.4626
3.1495	3.4338
3.1476	3.3989
3.1457	3.3674
3.1438	3.3423
3.1419	3.3330
3.1400	3.3330
3.1381	3.3371
3.1362	3.3328
3.1343	3.3213
3.1324	3.3039
3.1305	3.2900
3.1286	3.2759
3.1268	3.2544
3.1249	3.2336
3.1230	3.2141
3.1211	3.1892
3.1192	3.1743
3.1174	3.1692
3.1155	3.1758
3.1136	3.1772
3.1117	3.1684
3.1099	3.1658
3.1080	3.1645
3.1061	3.1538
3.1043	3.1418
3.1024	3.1311
3.1006	3.1221
3.0987	3.1081
3.0969	3.1018
3.0950	3.1013
3.0932	3.0976
3.0913	3.0881
3.0895	3.0671
3.0876	3.0456
3.0858	3.0332
3.0840	3.0249
3.0821	3.0227
3.0803	3.0176
3.0785	3.0124
3.0766	3.0122
3.0748	3.0093
3.0730	3.0078
3.0712	3.0100
3.0694	3.0076
3.0675	2.9993
3.0657	2.9761
3.0639	2.9524
3.0621	2.9343
3.0603	2.9209
3.0585	2.9155
3.0567	2.9160
3.0549	2.9177
3.0531	2.9150
3.0513	2.9011
3.0495	2.8916
3.0477	2.8806
3.0459	2.8696
3.0441	2.8664
3.0423	2.8674
3.0406	2.8652
3.0388	2.8635
3.0370	2.8625
3.0352	2.8581
3.0334	2.8452
3.0317	2.8347
3.0299	2.8220
3.0281	2.8066
3.0264	2.7932
3.0246	2.7961
3.0228	2.8101
3.0211	2.8257
3.0193	2.8303
3.0176	2.8245
3.0158	2.8081
3.0140	2.7891
3.0123	2.7820
3.0105	2.7851
3.0088	2.7956
3.0070	2.7983
3.0053	2.7832
3.0036	2.7593
3.0018	2.7439
3.0001	2.7444
2.9984	2.7559
2.9966	2.7681
2.9949	2.7834
2.9932	2.7851
2.9914	2.7707
2.9897	2.7466
2.9880	2.7241
2.9863	2.6997
2.9845	2.6785
2.9828	2.6721
2.9811	2.6824
2.9794	2.7012
2.9777	2.7151
2.9760	2.7183
2.9743	2.7134
2.9726	2.6970
2.9709	2.6782
2.9692	2.6645
2.9675	2.6509
2.9658	2.6352
2.9641	2.6233
2.9624	2.6191
2.9607	2.6172
2.9590	2.6206
2.9573	2.6338
2.9556	2.6455
2.9539	2.6416
2.9523	2.6279
2.9506	2.6157
2.9489	2.6047
2.9472	2.5972
2.9455	2.5994
2.9439	2.6103
2.9422	2.6233
2.9405	2.6357
2.9389	2.6348
2.9372	2.6199
2.9355	2.6106
2.9339	2.6096
2.9322	2.5986
2.9306	2.5962
2.9289	2.6196
2.9272	2.6445
2.9256	2.6499
2.9239	2.6411
2.9223	2.6360
2.9207	2.6316
2.9190	2.6179
2.9174	2.6113
2.9157	2.6150
2.9141	2.6099
2.9124	2.5955
2.9108	2.5854
2.9092	2.5854
2.9075	2.5962
2.9059	2.6079
2.9043	2.6079
2.9027	2.6018
2.9010	2.5886
2.8994	2.5754
2.8978	2.5769
2.8962	2.5837
2.8946	2.5945
2.8929	2.6077
2.8913	2.6228
2.8897	2.6423
2.8881	2.6531
2.8865	2.6724
2.8849	2.7021
2.8833	2.7161
2.8817	2.7197
2.8801	2.7185
2.8785	2.7192
2.8769	2.7226
2.8753	2.7178
2.8737	2.7229
2.8721	2.7407
2.8705	2.7576
2.8689	2.7864
2.8673	2.8218
2.8658	2.8469
2.8642	2.8684
2.8626	2.8830
2.8610	2.8884
2.8594	2.8884
2.8579	2.8906
2.8563	2.8994
2.8547	2.9011
2.8531	2.8787
2.8516	2.8691
2.8500	2.8813
2.8484	2.8960
2.8469	2.9060
2.8453	2.9145
2.8437	2.9197
2.8422	2.9143
2.8406	2.8926
2.8391	2.8848
2.8375	2.8906
2.8360	2.8984
2.8344	2.9055
2.8329	2.9192
2.8313	2.9372
2.8298	2.9600
2.8282	2.9829
2.8267	2.9988
2.8252	3.0027
2.8236	3.0110
2.8221	3.0261
2.8205	3.0539
2.8190	3.0933
2.8175	3.1416
2.8159	3.1914
2.8144	3.2192
2.8129	3.2236
2.8114	3.2200
2.8098	3.2078
2.8083	3.2031
2.8068	3.2109
2.8053	3.2307
2.8038	3.2725
2.8022	3.3193
2.8007	3.3552
2.7992	3.3809
2.7977	3.3940
2.7962	3.3955
2.7947	3.3935
2.7932	3.4033
2.7917	3.4202
2.7902	3.4324
2.7887	3.4382
2.7872	3.4431
2.7857	3.4463
2.7842	3.4514
2.7827	3.4709
2.7812	3.4993
2.7797	3.5185
2.7782	3.5395
2.7767	3.5620
2.7752	3.5718
2.7738	3.5713
2.7723	3.5708
2.7708	3.5754
2.7693	3.5666
2.7678	3.5281
2.7664	3.4834
2.7649	3.4350
2.7634	3.3735
2.7619	3.3337
2.7605	3.3374
2.7590	3.3882
2.7575	3.4758
2.7561	3.5776
2.7546	3.6943
2.7531	3.8113
2.7517	3.9243
2.7502	4.0456
2.7488	4.1665
2.7473	4.2776
2.7458	4.3789
2.7444	4.4617
2.7429	4.5305
2.7415	4.5932
2.7400	4.6606
2.7386	4.7463
2.7371	4.8618
2.7357	5.0015
2.7343	5.1692
2.7328	5.3623
2.7314	5.5652
2.7299	5.7563
2.7285	5.9243
2.7271	6.0771
2.7256	6.2190
2.7242	6.3598
2.7228	6.5561
2.7213	6.8169
2.7199	7.1150
2.7185	7.4324
2.7171	7.7385
2.7156	7.9621
2.7142	8.0615
2.7128	8.0652
2.7114	8.0073
2.7100	7.8957
2.7085	7.7702
2.7071	7.6894
2.7057	7.6970
2.7043	7.8242
2.7029	8.1157
2.7015	8.6067
2.7001	9.2690
2.6987	10.0508
2.6973	10.9138
2.6959	11.8308
2.6945	12.7639
2.6931	13.7180
2.6917	14.6638
2.6903	15.5566
2.6889	16.3767
2.6875	17.1035
2.6861	17.7417
2.6847	18.2988
2.6833	18.7617
2.6819	19.1652
2.6805	19.5107
2.6791	19.8103
2.6778	20.1145
2.6764	20.4436
2.6750	20.7412
2.6736	20.9694
2.6722	21.1418
2.6709	21.2482
2.6695	21.3181
2.6681	21.4079
2.6667	21.6037
2.6654	21.9240
2.6640	22.3037
2.6626	22.7079
2.6613	23.1091
2.6599	23.4243
2.6585	23.6533
2.6572	23.7971
2.6558	23.8906
2.6545	23.9931
2.6531	24.1340
2.6517	24.2983
2.6504	24.4633
2.6490	24.6086
2.6477	24.7411
2.6463	24.8459
2.6450	24.9313
2.6436	25.0346
2.6423	25.1552
2.6409	25.2868
2.6396	25.4218
2.6382	25.5156
2.6369	25.5637
2.6356	25.5551
2.6342	25.4711
2.6329	25.3713
2.6315	25.3017
2.6302	25.2866
2.6289	25.3830
2.6275	25.5576
2.6262	25.7831
2.6249	25.9609
2.6236	26.0063
2.6222	25.9877
2.6209	25.8915
2.6196	25.7729
2.6183	25.7543
2.6169	25.8327
2.6156	26.0129
2.6143	26.2216
2.6130	26.3705
2.6117	26.4596
2.6103	26.4328
2.6090	26.3088
2.6077	26.1740
2.6064	26.0683
2.6051	26.0710
2.6038	26.2160
2.6025	26.4238
2.6012	26.6247
2.5999	26.7031
2.5986	26.5407
2.5973	26.2494
2.5960	25.9997
2.5947	25.9130
2.5934	26.0517
2.5921	26.3454
2.5908	26.6554
2.5895	26.8679
2.5882	26.8720
2.5869	26.7494
2.5856	26.6464
2.5843	26.6103
2.5830	26.6769
2.5817	26.8188
2.5805	26.9325
2.5792	27.0224
2.5779	27.0483
2.5766	27.0055
2.5753	26.9648
2.5741	26.9282
2.5728	26.9194
2.5715	26.9601
2.5702	27.0314
2.5690	27.1222
2.5677	27.1725
2.5664	27.1528
2.5651	27.0781
2.5639	26.9814
2.5626	26.9194
2.5613	26.9399
2.5601	27.0668
2.5588	27.2294
2.5575	27.3586
2.5563	27.4103
2.5550	27.3713
2.5538	27.3066
2.5525	27.2533
2.5513	27.2170
2.5500	27.2282
2.5487	27.2702
2.5475	27.3049
2.5462	27.3149
2.5450	27.3178
2.5437	27.3307
2.5425	27.3442
2.5413	27.3517
2.5400	27.3722
2.5388	27.3947
2.5375	27.3871
2.5363	27.3627
2.5350	27.3405
2.5338	27.3271
2.5326	27.3215
2.5313	27.3266
2.5301	27.3473
2.5289	27.3674
2.5276	27.3827
2.5264	27.4042
2.5252	27.4235
2.5239	27.4345
2.5227	27.4389
2.5215	27.4347
2.5202	27.4355
2.5190	27.4260
2.5178	27.4076
2.5166	27.4057
2.5154	27.4116
2.5141	27.4247
2.5129	27.4526
2.5117	27.4738
2.5105	27.4975
2.5093	27.5087
2.5081	27.4950
2.5068	27.4853
2.5056	27.4765
2.5044	27.4701
2.5032	27.4792
2.5020	27.4909
2.5008	27.5197
2.4996	27.5615
2.4984	27.5907
2.4972	27.6181
2.4960	27.6301
2.4948	27.6144
2.4936	27.5973
2.4924	27.6027
2.4912	27.6176
2.4900	27.6415
2.4888	27.6799
2.4876	27.7336
2.4864	27.7822
2.4852	27.8100
2.4840	27.8346
2.4828	27.8715
2.4816	27.8984
2.4805	27.9325
2.4793	27.9784
2.4781	28.0256
2.4769	28.0600
2.4757	28.0805
2.4745	28.0927
2.4734	28.1117
2.4722	28.1347
2.4710	28.1630
2.4698	28.1879
2.4686	28.2304
2.4675	28.2890
2.4663	28.3393
2.4651	28.3652
2.4640	28.3954
2.4628	28.4296
2.4616	28.4579
2.4604	28.4719
2.4593	28.5129
2.4581	28.5820
2.4569	28.6362
2.4558	28.6664
2.4546	28.7009
2.4535	28.7314
2.4523	28.7590
2.4511	28.7746
2.4500	28.7953
2.4488	28.8295
2.4477	28.8644
2.4465	28.8991
2.4454	28.9382
2.4442	28.9762
2.4431	29.0243
2.4419	29.0683
2.4408	29.0978
2.4396	29.1264
2.4385	29.1601
2.4373	29.1991
2.4362	29.2487
2.4350	29.2990
2.4339	29.3444
2.4327	29.3862
2.4316	29.4301
2.4305	29.4804
2.4293	29.5329
2.4282	29.5917
2.4270	29.6576
2.4259	29.7028
2.4248	29.7333
2.4236	29.7743
2.4225	29.8273
2.4214	29.8708
2.4202	29.9096
2.4191	29.9455
2.4180	29.9767
2.4169	29.9946
2.4157	30.0121
2.4146	30.0480
2.4135	30.0946
2.4124	30.1410
2.4112	30.1935
2.4101	30.2397
2.4090	30.2834
2.4079	30.3251
2.4068	30.3534
2.4056	30.3696
2.4045	30.3847
2.4034	30.3964
2.4023	30.4125
2.4012	30.4433
2.4001	30.4884
2.3990	30.5309
2.3979	30.5592
2.3967	30.5846
2.3956	30.6127
2.3945	30.6305
2.3934	30.6481
2.3923	30.6716
2.3912	30.6896
2.3901	30.6969
2.3890	30.7018
2.3879	30.7143
2.3868	30.7316
2.3857	30.7448
2.3846	30.7470
2.3835	30.7380
2.3824	30.7341
2.3813	30.7441
2.3802	30.7729
2.3791	30.8178
2.3781	30.8700
2.3770	30.9140
2.3759	30.9438
2.3748	30.9645
2.3737	30.9853
2.3726	31.0019
2.3715	31.0195
2.3704	31.0390
2.3694	31.0404
2.3683	31.0275
2.3672	31.0216
2.3661	31.0175
2.3650	31.0207
2.3640	31.0348
2.3629	31.0549
2.3618	31.0798
2.3607	31.0959
2.3597	31.1010
2.3586	31.0954
2.3575	31.0646
2.3564	31.0319
2.3554	31.0077
2.3543	30.9858
2.3532	30.9723
2.3522	30.9804
2.3511	31.0119
2.3500	31.0356
2.3490	31.0400
2.3479	31.0495
2.3468	31.0534
2.3458	31.0361
2.3447	31.0248
2.3436	31.0585
2.3426	31.1232
2.3415	31.1845
2.3405	31.2502
2.3394	31.3244
2.3384	31.3827
2.3373	31.4172
2.3363	31.4294
2.3352	31.4418
2.3342	31.4482
2.3331	31.4389
2.3321	31.4445
2.3310	31.4738
2.3300	31.5231
2.3289	31.5754
2.3279	31.6003
2.3268	31.6095
2.3258	31.6266
2.3247	31.6545
2.3237	31.6957
2.3226	31.7546
2.3216	31.8190
2.3206	31.8791
2.3195	31.9118
2.3185	31.9264
2.3175	31.9374
2.3164	31.9360
2.3154	31.9176
2.3144	31.9159
2.3133	31.9298
2.3123	31.9482
2.3113	31.9516
2.3102	31.9577
2.3092	31.9662
2.3082	31.9599
2.3071	31.9450
2.3061	31.9530
2.3051	31.9862
2.3041	32.0246
2.3030	32.0690
2.3020	32.1376
2.3010	32.2140
2.3000	32.2712
2.2990	32.3061
2.2979	32.3280
2.2969	32.3449
2.2959	32.3586
2.2949	32.3756
2.2939	32.4213
2.2929	32.4611
2.2918	32.4860
2.2908	32.5058
2.2898	32.5194
2.2888	32.5429
2.2878	32.5846
2.2868	32.6249
2.2858	32.6811
2.2848	32.7216
2.2838	32.7538
2.2828	32.7826
2.2818	32.8085
2.2808	32.8139
2.2798	32.8339
2.2787	32.8547
2.2777	32.8566
2.2767	32.8652
2.2757	32.9013
2.2747	32.9284
2.2738	32.9406
2.2728	32.9333
2.2718	32.9325
2.2708	32.9289
2.2698	32.9220
2.2688	32.9433
2.2678	32.9960
2.2668	33.0539
2.2658	33.1137
2.2648	33.1693
2.2638	33.2016
2.2628	33.2155
2.2618	33.2299
2.2609	33.2350
2.2599	33.2365
2.2589	33.2480
2.2579	33.2668
2.2569	33.2970
2.2559	33.3327
2.2550	33.3661
2.2540	33.3891
2.2530	33.4140
2.2520	33.4416
2.2510	33.4540
2.2501	33.4787
2.2491	33.5146
2.2481	33.5605
2.2471	33.6276
2.2462	33.6955
2.2452	33.7834
2.2442	33.8898
2.2433	33.9750
2.2423	34.0487
2.2413	34.0946
2.2403	34.1178
2.2394	34.1327
2.2384	34.1466
2.2374	34.1747
2.2365	34.2028
2.2355	34.2270
2.2345	34.2668
2.2336	34.3146
2.2326	34.3598
2.2317	34.3922
2.2307	34.4113
2.2297	34.4167
2.2288	34.4047
2.2278	34.3778
2.2269	34.3493
2.2259	34.3400
2.2250	34.3410
2.2240	34.3251
2.2231	34.2785
2.2221	34.2091
2.2211	34.1437
2.2202	34.0746
2.2192	33.9923
2.2183	33.9245
2.2173	33.8796
2.2164	33.8466
2.2155	33.8051
2.2145	33.7245
2.2136	33.6205
2.2126	33.5089
2.2117	33.3673
2.2107	33.2235
2.2098	33.1379
2.2088	33.1012
2.2079	33.1159
2.2070	33.1564
2.2060	33.2087
2.2051	33.2536
2.2041	33.2655
2.2032	33.2328
2.2023	33.1860
2.2013	33.1525
2.2004	33.1569
2.1995	33.1916
2.1985	33.2450
2.1976	33.2973
2.1967	33.3476
2.1957	33.3839
2.1948	33.4289
2.1939	33.4865
2.1930	33.5531
2.1920	33.6266
2.1911	33.6867
2.1902	33.7213
2.1893	33.7575
2.1883	33.8222
2.1874	33.8922
2.1865	33.9403
2.1856	33.9867
2.1846	34.0304
2.1837	34.0585
2.1828	34.0890
2.1819	34.1515
2.1810	34.2555
2.1800	34.3683
2.1791	34.4455
2.1782	34.4760
2.1773	34.4796
2.1764	34.4760
2.1755	34.4716
2.1746	34.5085
2.1736	34.5849
2.1727	34.6711
2.1718	34.7243
2.1709	34.7379
2.1700	34.7213
2.1691	34.6925
2.1682	34.6684
2.1673	34.6837
2.1664	34.7160
2.1655	34.7441
2.1646	34.7970
2.1637	34.8271
2.1628	34.8036
2.1619	34.7834
2.1610	34.7897
2.1601	34.8295
2.1592	34.8688
2.1583	34.9123
2.1574	34.9740
2.1565	35.0002
2.1556	34.9921
2.1547	34.9904
2.1538	34.9982
2.1529	35.0385
2.1520	35.1086
2.1511	35.1930
2.1502	35.2392
2.1493	35.2692
2.1484	35.2690
2.1475	35.2284
2.1466	35.2057
2.1458	35.2165
2.1449	35.2311
2.1440	35.2309
2.1431	35.2282
2.1422	35.2458
2.1413	35.2338
2.1404	35.2206
2.1396	35.2597
2.1387	35.2978
2.1378	35.3090
2.1369	35.3170
2.1360	35.3322
2.1352	35.3446
2.1343	35.3305
2.1334	35.3273
2.1325	35.3632
2.1316	35.3734
2.1308	35.3588
2.1299	35.3388
2.1290	35.3163
2.1281	35.3087
2.1273	35.3063
2.1264	35.3415
2.1255	35.4098
2.1247	35.4284
2.1238	35.4171
2.1229	35.4027
2.1220	35.3766
2.1212	35.3507
2.1203	35.3244
2.1194	35.3210
2.1186	35.3659
2.1177	35.4364
2.1168	35.5024
2.1160	35.5526
2.1151	35.5692
2.1143	35.5326
2.1134	35.4538
2.1125	35.3893
2.1117	35.4023
2.1108	35.4689
2.1100	35.5368
2.1091	35.5922
2.1082	35.6044
2.1074	35.5548
2.1065	35.4960
2.1057	35.4530
2.1048	35.4281
2.1040	35.4547
2.1031	35.5124
2.1023	35.5602
2.1014	35.5609
2.1005	35.5358
2.0997	35.5075
2.0988	35.4872
2.0980	35.5048
2.0971	35.5697
2.0963	35.6332
2.0955	35.6659
2.0946	35.6625
2.0938	35.6361
2.0929	35.6037
2.0921	35.5775
2.0912	35.5700
2.0904	35.5663
2.0895	35.5412
2.0887	35.5224
2.0879	35.5356
2.0870	35.5360
2.0862	35.5321
2.0853	35.5380
2.0845	35.5468
2.0837	35.5500
2.0828	35.5360
2.0820	35.5863
2.0812	35.5324
2.0803	35.6022
2.0795	35.7516
2.0760	35.9431
2.0720	35.9793
2.0680	36.3092
2.0640	36.3092
2.0600	36.0847
2.0560	36.1559
2.0520	36.0099
2.0480	36.0633
2.0440	36.2351
2.0400	35.5989
2.0360	35.6342
2.0320	35.3814
2.0280	35.6053
2.0240	35.6765
2.0200	35.6116
2.0160	35.7548
2.0120	35.5528
2.0080	35.5770
2.0040	35.4817
2.0000	35.2398
1.9960	35.3087
1.9920	35.0221
1.9880	34.6338
1.9840	34.3668
1.9800	34.0611
1.9760	33.9435
1.9720	33.6156
1.9680	33.7757
1.9640	33.6729
1.9600	33.5528
1.9560	33.3472
1.9520	33.2956
1.9480	33.1408
1.9440	32.7621
1.9400	32.7263
1.9360	32.4635
1.9320	32.2488
1.9280	32.0524
1.9240	32.0482
1.9200	31.7660
1.9160	31.8387
1.9120	31.8162
1.9080	32.1494
1.9040	32.5771
1.9000	32.9946
1.8960	33.8500
1.8920	34.9114
1.8880	35.2768
1.8840	36.0307
1.8800	36.9176
1.8760	37.2797
1.8720	37.4086
1.8680	37.8648
1.8640	37.9630
1.8600	38.1228
1.8560	38.3009
1.8520	38.5413
1.8480	38.8590
1.8440	38.9017
1.8400	38.7178
1.8360	38.7090
1.8320	38.5078
1.8280	38.4826
1.8240	38.2581
1.8200	38.1413
1.8160	37.8384
1.8120	37.9155
1.8080	37.9734
1.8040	38.1996
1.8000	38.2011
1.7960	38.2207
1.7920	37.8894
1.7880	37.8701
1.7840	38.3245
1.7800	38.2798
1.7760	38.0380
1.7720	37.9340
1.7680	38.0858
1.7640	37.9166
1.7600	37.9299
1.7560	37.9496
1.7520	37.8123
1.7480	37.9877
1.7440	37.8951
1.7400	38.1813
1.7360	38.1448
1.7320	37.7306
1.7280	38.0224
1.7240	37.7158
1.7200	37.6843
1.7160	37.6411
1.7120	37.6945
1.7080	37.2880
1.7040	37.5141
1.7000	37.5914
1.6960	37.3179
1.6920	37.3561
1.6880	37.2904
1.6840	37.2522
1.6800	37.2796
1.6760	37.1587
1.6720	37.1778
1.6680	37.1308
1.6640	37.0164
1.6600	37.0164
1.6560	37.0646
1.6520	37.0173
1.6480	37.0555
1.6440	37.0646
1.6400	37.1411
1.6360	37.0173
1.6320	37.0081
1.6280	37.1901
1.6240	37.1427
1.6200	37.0126
1.6160	36.8555
1.6120	36.7694
1.6080	36.8267
1.6040	37.0485
1.6000	36.8842
1.5960	36.8938
1.5920	36.7497
1.5880	36.7114
1.5840	36.5810
1.5800	36.4729
1.5760	36.3408
1.5720	36.3973
1.5680	36.1385
1.5640	36.2513
1.5600	36.3080
1.5560	36.3757
1.5520	35.9972
1.5480	35.9599
1.5440	36.1835
1.5400	35.9605
1.5360	35.7553
1.5320	35.7553
1.5280	35.7364
1.5240	35.8481
1.5200	35.7922
1.5160	35.4018
1.5120	35.5000
1.5080	35.4815
1.5040	35.2749
1.5000	34.9941
1.4960	34.8798
1.4920	34.7103
1.4880	34.8212
1.4840	34.6531
1.4800	34.5987
1.4760	34.2965
1.4720	34.1790
1.4680	34.0498
1.4640	34.0148
1.4600	33.8198
1.4560	33.5900
1.4520	33.7134
1.4480	33.7841
1.4440	33.6688
1.4400	33.7659
1.4360	33.6762
1.4320	33.5970
1.4280	33.4014
1.4240	33.4014
1.4200	33.5516
1.4160	33.2923
1.4120	33.0922
1.4080	32.8347
1.4040	32.7989
1.4000	32.4405
1.3960	32.3238
1.3920	32.6179
1.3880	32.7787
1.3840	32.8890
1.3800	33.1044
1.3760	33.2616
1.3720	33.4157
1.3680	33.0204
1.3640	33.0339
1.3600	33.1166
1.3560	33.3511
1.3520	33.3499
1.3480	33.3663
1.3440	33.3680
1.3400	33.1822
1.3360	33.1419
1.3320	33.1042
1.3280	32.8981
1.3240	32.9063
1.3200	32.6567
1.3160	32.3995
1.3120	32.4165
1.3080	32.3600
1.3040	32.4024
1.3000	32.4366
1.2960	32.6005
1.2920	32.3007
1.2880	32.1521
1.2840	32.2493
1.2800	31.9658
1.2760	31.5942
1.2720	31.5691
1.2680	31.4811
1.2640	31.4383
1.2600	31.3614
1.2560	31.3784
1.2520	31.5610
1.2480	31.1229
1.2440	31.0624
1.2400	30.8906
1.2360	30.8128
1.2320	30.6567
1.2280	30.6068
1.2240	30.6401
1.2200	30.8128
1.2160	30.6963
1.2120	30.1963
1.2080	30.1340
1.2040	30.1664
1.2000	30.1826
1.1960	30.0392
1.1920	29.7415
1.1880	29.9427
1.1840	29.7886
1.1800	29.7683
1.1760	29.5992
1.1720	29.1800
1.1680	29.0854
1.1640	29.0368
1.1600	28.8929
1.1560	28.9018
1.1520	28.6791
1.1480	28.6072
1.1440	28.3037
1.1400	28.2233
1.1360	28.6724
1.1320	28.6201
1.1280	28.7586
1.1240	28.4566
1.1200	28.2770
1.1160	28.1400
1.1120	28.0644
1.1080	27.8702
1.1040	27.7803
1.1000	27.6229
1.0960	27.3978
1.0920	27.4274
1.0880	27.3053
1.0840	26.9513
1.0800	27.1922
1.0760	27.1380
1.0720	26.8240
1.0680	26.3994
1.0640	26.4563
1.0600	26.7396
1.0560	26.6122
1.0520	26.5426
1.0480	26.2730
1.0440	26.0039
1.0400	25.9606
1.0360	26.1610
1.0320	25.8609
1.0280	25.5197
1.0240	25.6613
1.0200	25.5613
1.0160	25.4783
1.0120	25.3785
1.0080	25.3885
1.0040	25.2606
1.0000	25.3432
0.9960	25.1626
0.9920	25.0759
0.9880	24.7034
0.9840	24.7527
0.9800	24.7000
0.9760	24.5989
0.9720	24.6565
0.9680	24.4097
0.9640	24.2640
0.9600	24.0916
0.9560	23.9898
0.9520	23.8647
0.9480	23.7671
0.9440	23.5051
0.9400	23.5440
0.9360	23.4838
0.9320	23.3815
0.9280	23.3556
0.9240	23.1890
0.9200	22.9972
0.9160	22.9583
0.9120	22.8427
0.9080	22.8554
0.9040	22.5336
0.9000	22.6217
0.8960	22.4143
0.8920	22.5243
0.8880	22.4964
0.8840	22.6906
0.8800	22.4442
0.8760	22.2997
0.8720	22.4022
0.8680	22.2844
0.8640	22.3035
0.8600	22.0324
0.8560	22.2368
0.8520	22.2887
0.8480	22.1827
0.8440	21.9988
0.8400	21.6785
0.8360	21.7704
0.8320	21.7401
0.8280	21.6892
0.8240	21.4020
0.8200	21.3075
0.8160	21.4377
0.8120	21.3163
0.8080	21.0178
0.8040	20.9947
0.8000	20.8378
0.7990	20.3680
0.7980	20.3665
0.7970	20.7786
0.7960	20.7472
0.7950	20.4823
0.7940	20.1722
0.7930	20.4694
0.7920	20.3253
0.7910	20.4275
0.7900	20.2828
0.7890	20.2667
0.7880	20.2024
0.7870	20.3054
0.7860	20.4380
0.7850	20.2024
0.7840	20.0152
0.7830	19.9467
0.7820	19.8328
0.7810	19.7162
0.7800	19.6716
0.7790	19.7264
0.7780	19.6699
0.7770	19.7515
0.7760	19.7264
0.7750	19.7912
0.7740	19.6592
0.7730	19.6467
0.7720	19.6448
0.7710	19.5256
0.7700	19.5256
0.7690	19.4142
0.7680	19.5131
0.7670	19.2415
0.7660	19.2538
0.7650	19.2415
0.7640	19.1096
0.7630	19.1801
0.7620	19.0244
0.7610	18.9415
0.7600	18.7629
0.7590	18.7394
0.7580	18.6912
0.7570	18.7515
0.7560	18.6191
0.7550	18.6191
0.7540	18.4158
0.7530	18.7272
0.7520	18.4751
0.7510	18.4156
0.7500	18.5832
0.7490	18.5109
0.7480	18.2472
0.7470	18.4753
0.7460	18.1272
0.7450	18.2712
0.7440	17.9838
0.7430	18.0920
0.7420	18.2951
0.7410	18.3424
0.7400	18.3543
0.7390	18.2099
0.7380	17.9689
0.7370	17.9689
0.7360	17.8379
0.7350	17.8379
0.7340	17.9084
0.7330	17.7020
0.7320	17.7137
0.7310	17.6321
0.7300	17.3969
0.7290	17.3514
0.7280	17.3855
0.7270	17.4299
0.7260	17.3664
0.7250	17.0384
0.7240	17.1086
0.7230	16.9314
0.7220	16.9763
0.7210	17.0860
0.7200	17.4484
0.7190	17.0328
0.7180	16.8554
0.7170	16.5915
0.7160	16.8219
0.7150	16.6356
0.7140	16.6689
0.7130	16.5255
0.7120	16.5365
0.7110	16.6140
0.7100	16.4812
0.7090	16.2379
0.7080	16.2487
0.7070	16.2924
0.7060	16.0375
0.7050	16.0268
0.7040	15.9838
0.7030	15.9304
0.7020	15.7880
0.7010	15.7775
0.7000	15.9370
0.6990	15.9908
0.6980	15.6687
0.6970	15.6965
0.6960	15.5999
0.6950	15.5573
0.6940	15.4546
0.6930	15.4019
0.6920	15.3809
0.6910	15.3809
0.6900	15.2575
0.6890	15.3202
0.6880	15.1652
0.6870	15.1342
0.6860	15.1238
0.6850	15.0929
0.6840	14.8772
0.6830	14.7337
0.6820	14.6106
0.6810	14.6006
0.6800	14.5707
0.6790	14.7011
0.6780	14.6074
0.6770	14.5134
0.6760	14.2156
0.6750	14.4834
0.6740	14.4335
0.6730	14.1374
0.6720	14.0141
0.6710	14.4718
0.6700	14.3684
0.6690	14.2648
0.6680	14.3050
0.6670	14.0065
0.6660	14.2648
0.6650	14.2648
0.6640	14.1310
0.6630	13.8347
0.6620	13.7889
0.6610	13.7987
0.6600	13.4534
0.6590	13.5879
0.6580	13.5592
0.6570	13.5314
0.6560	13.2520
0.6550	13.2984
0.6540	13.4743
0.6530	13.4265
0.6520	13.3695
0.6510	13.3695
0.6500	13.0759
0.6490	12.9069
0.6480	12.8523
0.6470	12.9069
0.6460	12.8477
0.6450	12.8568
0.6440	12.8477
0.6430	12.8843
0.6420	12.7606
0.6410	12.7515
0.6400	12.4954
0.6390	12.3542
0.6380	12.3189
0.6370	12.2835
0.6360	12.5244
0.6350	12.2835
0.6340	12.2923
0.6330	12.1684
0.6320	12.2035
0.6310	12.0880
0.6300	12.0793
0.6290	12.1055
0.6280	11.9852
0.6270	11.7967
0.6260	11.9927
0.6250	11.9840
0.6240	12.2069
0.6230	11.8696
0.6220	11.5573
0.6210	11.4905
0.6200	11.6173
0.6190	11.4441
0.6180	11.3224
0.6170	11.2180
0.6160	11.2180
0.6150	11.2426
0.6140	11.1181
0.6130	11.1100
0.6120	11.1426
0.6110	11.1426
0.6100	11.0097
0.6090	11.0017
0.6080	10.9855
0.6070	11.0405
0.6060	11.0816
0.6050	10.9729
0.6040	10.8563
0.6030	10.6209
0.6020	10.5344
0.6010	10.4631
0.6000	10.5026
0.5990	10.7049
0.5980	10.5936
0.5970	10.4464
0.5960	10.4623
0.5950	10.2768
0.5940	10.1675
0.5930	10.1985
0.5920	10.4623
0.5910	10.2063
0.5900	10.2501
0.5890	10.2610
0.5880	10.0938
0.5870	9.9962
0.5860	10.1325
0.5850	10.1850
0.5840	9.9580
0.5830	9.8821
0.5820	9.8897
0.5810	9.9124
0.5800	9.7093
0.5790	9.9784
0.5780	9.8582
0.5770	9.7820
0.5760	9.2800
0.5750	9.3957
0.5740	9.3524
0.5730	9.1189
0.5720	9.1892
0.5710	9.4937
0.5700	9.5517
0.5690	9.1327
0.5680	8.9945
0.5670	8.9876
0.5660	8.9808
0.5650	8.9740
0.5640	9.0708
0.5630	8.9765
0.5620	9.0041
0.5610	8.8971
0.5600	8.7858
0.5590	8.5756
0.5580	8.3337
0.5570	8.2764
0.5560	8.2637
0.5550	7.9604
0.5540	8.1344
0.5530	7.8373
0.5520	8.0360
0.5510	7.9494
0.5500	7.9865
0.5490	7.7744
0.5480	7.5090
0.5470	7.3666
0.5460	7.3497
0.5450	7.2991
0.5440	7.6316
0.5430	7.1915
0.5420	7.2136
0.5410	7.3884
0.5400	7.4060
0.5390	7.4413
0.5380	7.1850
0.5370	7.1054
0.5360	7.0655
0.5350	6.9739
0.5340	6.9852
0.5330	6.9234
0.5320	6.5641
0.5310	6.7491
0.5300	6.7655
0.5290	6.7764
0.5280	6.6516
0.5270	6.6679
0.5260	5.9757
0.5250	5.9950
0.5240	5.9998
0.5230	6.3242
0.5220	5.9031
0.5210	6.0386
0.5200	6.2297
0.5190	5.8698
0.5180	6.0279
0.5170	5.4806
0.5160	5.4941
0.5150	5.8421
0.5140	5.3911
0.5130	5.3867
0.5120	5.4135
0.5110	5.4000
0.5100	5.3007
0.5090	5.1701
0.5080	5.1399
0.5070	5.1313
0.5060	5.0185
0.5050	5.0143
0.5040	4.7713
0.5030	4.7631
0.5020	4.7794
0.5010	4.4835
0.5000	4.6615
0.4990	4.6897
0.4980	4.5237
0.4970	4.5158
0.4960	4.3728
0.4950	4.2431
0.4940	4.2724
0.4930	4.2578
0.4920	4.0811
0.4910	3.9808
0.4900	3.8360
0.4890	4.2578
0.4880	4.0264
0.4870	4.0229
0.4860	4.1123
0.4850	3.8327
0.4840	3.7197
0.4830	3.8526
0.4820	3.8659
0.4810	3.7555
0.4800	3.7424
0.4790	3.7327
0.4780	3.6188
0.4770	3.7522
0.4760	3.7489
0.4750	3.4848
0.4740	3.4758
0.4730	3.4728
0.4720	3.3455
0.4710	3.4728
0.4700	3.1592
0.4690	3.1489
0.4680	3.1540
0.4670	3.1566
0.4660	3.1386
0.4650	3.1489
0.4640	3.1670
0.4630	3.0012
0.4620	2.8642
0.4610	2.9893
0.4600	3.0012
0.4590	2.8878
0.4580	2.8963
0.4570	2.9196
0.4560	2.9239
0.4550	2.7594
0.4540	2.7652
0.4530	2.7498
0.4520	2.7594
0.4510	2.4438
0.4500	2.6979
0.4490	2.6828
0.4480	2.2710
0.4470	2.4407
0.4460	2.2736
0.4450	2.2749
0.4440	2.2775
0.4430	2.2815
0.4420	2.1121
0.4410	2.1232
0.4400	2.1199
0.4390	2.1221
0.4380	1.9636
0.4370	1.9654
0.4360	1.9618
0.4350	1.9574
0.4340	1.8867
0.4330	1.6309
0.4320	1.6327
0.4310	1.3360
0.4300	1.3362
0.4290	1.2992
0.4280	1.0031
0.4270	1.1698
0.4260	1.1695
0.4250	1.0028
0.4240	1.1700
0.4230	1.0010
0.4220	0.8294
0.4210	0.6972
0.4200	0.8294
0.4190	0.8315
0.4180	0.4937
0.4170	0.4994
0.4160	0.3352
0.4150	0.4612
0.4140	0.4623
0.4130	0.3340
0.4120	0.4665
0.4110	0.2962
0.4100	0.2962
0.4090	0.2987
0.4080	0.3863
0.4070	0.1230
0.4060	0.3823
0.4050	0.1230
0.4040	0.1092
0.4030	0.1092
0.4020	-0.2368
0.4010	-0.2408
0.4000	-0.4142
