Name:  Reddish brown fine sandy loam
Type:  Soils
Class:  Alfisol
Subclass:  Paleustalf
Particle Size:  see additional information
Sample No.:  87P2376
Owner:  JHU
Wavelength range:  All
Origin:  Howard Co. Tx. via USDA Soil Conservation service.

Description:  The parent  material is eolian from level or undulating 
plains.  Reddish brown fine sandy loam (fine-loamy, mixed thermic aridic).




Measurement:  Directional (10 degree) hemispherical reflectance
First Column:  X
Second Column:  Y
X Units:  Wavelength (micrometers)
Y Units:  Reflectance (percent)
First X Value:  14.0112
Last X Value:  0.4000
Number of X Values:  2844
Additional information:  87P2376a.txt

14.0112	1.8267
13.9734	1.8179
13.9359	1.8113
13.8985	1.8223
13.8614	1.8633
13.8244	1.9150
13.7876	1.9639
13.7511	2.0029
13.7147	2.0378
13.6785	2.0674
13.6425	2.0864
13.6067	2.1006
13.5711	2.1172
13.5356	2.1321
13.5004	2.1470
13.4653	2.1660
13.4304	2.1973
13.3957	2.2334
13.3612	2.2695
13.3269	2.3081
13.2927	2.3516
13.2587	2.3938
13.2249	2.4355
13.1912	2.4831
13.1577	2.5408
13.1244	2.6020
13.0913	2.6697
13.0583	2.7534
13.0255	2.8599
12.9929	2.9936
12.9604	3.1636
12.9281	3.3679
12.8959	3.5840
12.8639	3.7681
12.8321	3.8735
12.8004	3.8628
12.7688	3.7278
12.7375	3.5005
12.7063	3.2488
12.6752	3.0474
12.6443	2.9490
12.6135	2.9670
12.5829	3.0693
12.5524	3.1870
12.5221	3.2451
12.4919	3.1819
12.4619	2.9761
12.4320	2.6450
12.4023	2.2410
12.3727	1.8340
12.3432	1.4922
12.3139	1.2588
12.2847	1.1482
12.2557	1.1379
12.2268	1.1956
12.1980	1.2856
12.1694	1.3813
12.1409	1.4651
12.1125	1.5310
12.0843	1.5828
12.0562	1.6272
12.0282	1.6689
12.0003	1.7129
11.9726	1.7632
11.9450	1.8188
11.9176	1.8716
11.8903	1.9167
11.8631	1.9524
11.8360	1.9810
11.8090	2.0071
11.7822	2.0366
11.7555	2.0723
11.7289	2.1147
11.7024	2.1597
11.6760	2.2046
11.6498	2.2444
11.6237	2.2751
11.5977	2.2974
11.5718	2.3137
11.5460	2.3242
11.5203	2.3347
11.4948	2.3489
11.4694	2.3674
11.4440	2.3879
11.4188	2.4084
11.3937	2.4287
11.3688	2.4492
11.3439	2.4690
11.3191	2.4927
11.2944	2.5212
11.2699	2.5520
11.2455	2.5823
11.2211	2.6103
11.1969	2.6360
11.1727	2.6645
11.1487	2.6982
11.1248	2.7390
11.1010	2.7832
11.0773	2.8291
11.0536	2.8708
11.0301	2.9018
11.0067	2.9175
10.9834	2.9236
10.9602	2.9248
10.9370	2.9216
10.9140	2.9133
10.8911	2.9062
10.8682	2.9006
10.8455	2.8940
10.8229	2.8870
10.8003	2.8840
10.7779	2.8865
10.7555	2.8918
10.7332	2.8977
10.7111	2.9070
10.6890	2.9189
10.6670	2.9351
10.6451	2.9536
10.6233	2.9746
10.6015	2.9976
10.5799	3.0234
10.5584	3.0539
10.5369	3.0891
10.5155	3.1306
10.4942	3.1811
10.4730	3.2363
10.4519	3.2954
10.4309	3.3594
10.4099	3.4311
10.3891	3.5083
10.3683	3.5876
10.3476	3.6672
10.3270	3.7471
10.3065	3.8252
10.2860	3.9040
10.2656	3.9875
10.2454	4.0803
10.2251	4.1836
10.2050	4.2934
10.1850	4.4050
10.1650	4.5195
10.1451	4.6387
10.1253	4.7634
10.1056	4.8918
10.0859	5.0237
10.0663	5.1606
10.0468	5.3015
10.0274	5.4416
10.0080	5.5813
9.9887	5.7182
9.9695	5.8484
9.9504	5.9639
9.9313	6.0635
9.9123	6.1509
9.8934	6.2334
9.8746	6.3161
9.8558	6.4033
9.8371	6.4975
9.8185	6.6057
9.7999	6.7307
9.7814	6.8689
9.7630	7.0176
9.7447	7.1775
9.7264	7.3450
9.7082	7.5122
9.6900	7.6770
9.6719	7.8457
9.6539	8.0168
9.6360	8.1833
9.6181	8.3449
9.6003	8.5058
9.5825	8.6684
9.5649	8.8359
9.5472	9.0134
9.5297	9.2068
9.5122	9.4148
9.4948	9.6404
9.4774	9.8911
9.4601	10.1753
9.4429	10.5029
9.4257	10.8764
9.4086	11.2844
9.3916	11.7043
9.3746	12.1096
9.3577	12.4741
9.3408	12.7727
9.3240	12.9929
9.3073	13.1333
9.2906	13.1975
9.2740	13.1992
9.2574	13.1548
9.2409	13.0837
9.2245	13.0002
9.2081	12.9133
9.1918	12.8318
9.1755	12.7568
9.1593	12.6887
9.1431	12.6269
9.1270	12.5678
9.1110	12.5070
9.0950	12.4424
9.0791	12.3737
9.0632	12.2995
9.0474	12.2209
9.0316	12.1467
9.0159	12.0857
9.0003	12.0459
8.9847	12.0368
8.9691	12.0681
8.9536	12.1355
8.9382	12.2270
8.9228	12.3335
8.9075	12.4504
8.8922	12.5654
8.8770	12.6704
8.8618	12.7607
8.8467	12.8330
8.8316	12.8820
8.8166	12.9045
8.8016	12.9062
8.7867	12.8928
8.7718	12.8630
8.7570	12.8259
8.7422	12.7800
8.7275	12.7038
8.7129	12.5503
8.6982	12.2680
8.6837	11.8425
8.6692	11.3142
8.6547	10.7878
8.6403	10.4192
8.6259	10.3432
8.6116	10.6115
8.5973	11.1633
8.5830	11.8630
8.5688	12.5605
8.5547	13.1425
8.5406	13.5632
8.5266	13.8437
8.5126	14.0383
8.4986	14.1958
8.4847	14.3442
8.4708	14.4983
8.4570	14.6557
8.4432	14.8125
8.4295	14.9670
8.4158	15.1198
8.4022	15.2702
8.3886	15.4167
8.3750	15.5634
8.3615	15.7187
8.3481	15.8803
8.3347	16.0476
8.3213	16.2258
8.3079	16.4191
8.2946	16.6213
8.2814	16.8227
8.2682	17.0180
8.2550	17.1997
8.2419	17.3493
8.2288	17.4489
8.2158	17.4824
8.2028	17.4294
8.1898	17.2605
8.1769	16.9531
8.1640	16.5007
8.1512	15.9123
8.1384	15.2092
8.1256	14.4267
8.1129	13.6054
8.1002	12.7819
8.0876	11.9782
8.0750	11.2092
8.0624	10.4848
8.0499	9.8093
8.0374	9.1804
8.0250	8.5947
8.0126	8.0456
8.0002	7.5271
7.9879	7.0283
7.9756	6.5422
7.9634	6.0669
7.9512	5.6069
7.9390	5.1682
7.9268	4.7578
7.9147	4.3818
7.9027	4.0466
7.8906	3.7490
7.8786	3.4824
7.8667	3.2449
7.8548	3.0354
7.8429	2.8516
7.8310	2.6919
7.8192	2.5561
7.8075	2.4446
7.7957	2.3518
7.7840	2.2712
7.7723	2.1985
7.7607	2.1279
7.7491	2.0520
7.7375	1.9678
7.7260	1.8789
7.7145	1.7930
7.7031	1.7131
7.6916	1.6431
7.6802	1.5837
7.6689	1.5310
7.6575	1.4773
7.6462	1.4189
7.6350	1.3601
7.6238	1.3057
7.6126	1.2583
7.6014	1.2202
7.5903	1.1909
7.5792	1.1667
7.5681	1.1431
7.5571	1.1179
7.5461	1.0906
7.5351	1.0635
7.5242	1.0359
7.5133	1.0098
7.5024	0.9836
7.4916	0.9600
7.4807	0.9421
7.4700	0.9290
7.4592	0.9180
7.4485	0.9089
7.4378	0.9004
7.4272	0.8906
7.4165	0.8782
7.4059	0.8684
7.3954	0.8628
7.3848	0.8589
7.3743	0.8533
7.3639	0.8477
7.3534	0.8425
7.3430	0.8376
7.3326	0.8354
7.3223	0.8376
7.3119	0.8430
7.3016	0.8486
7.2914	0.8530
7.2811	0.8584
7.2709	0.8638
7.2607	0.8691
7.2506	0.8740
7.2404	0.8767
7.2303	0.8762
7.2203	0.8738
7.2102	0.8718
7.2002	0.8687
7.1902	0.8657
7.1803	0.8655
7.1703	0.8672
7.1604	0.8728
7.1506	0.8845
7.1407	0.9014
7.1309	0.9189
7.1211	0.9304
7.1113	0.9353
7.1016	0.9343
7.0919	0.9268
7.0822	0.9167
7.0725	0.9089
7.0629	0.9026
7.0533	0.8967
7.0437	0.8928
7.0341	0.8936
7.0246	0.9004
7.0151	0.9121
7.0056	0.9255
6.9962	0.9399
6.9867	0.9514
6.9773	0.9590
6.9679	0.9668
6.9586	0.9751
6.9493	0.9856
6.9400	0.9966
6.9307	1.0056
6.9214	1.0129
6.9122	1.0159
6.9030	1.0132
6.8938	1.0076
6.8847	0.9995
6.8755	0.9910
6.8664	0.9836
6.8573	0.9807
6.8483	0.9827
6.8393	0.9868
6.8302	0.9895
6.8213	0.9905
6.8123	0.9902
6.8034	0.9900
6.7944	0.9917
6.7855	0.9980
6.7767	1.0107
6.7678	1.0264
6.7590	1.0381
6.7502	1.0439
6.7414	1.0432
6.7327	1.0361
6.7239	1.0251
6.7152	1.0151
6.7065	1.0110
6.6979	1.0139
6.6892	1.0205
6.6806	1.0286
6.6720	1.0376
6.6634	1.0452
6.6549	1.0518
6.6464	1.0566
6.6378	1.0618
6.6294	1.0669
6.6209	1.0676
6.6124	1.0630
6.6040	1.0537
6.5956	1.0437
6.5872	1.0359
6.5789	1.0339
6.5705	1.0393
6.5622	1.0498
6.5539	1.0610
6.5456	1.0728
6.5374	1.0811
6.5292	1.0850
6.5209	1.0869
6.5128	1.0930
6.5046	1.1050
6.4964	1.1240
6.4883	1.1523
6.4802	1.1899
6.4721	1.2290
6.4640	1.2600
6.4560	1.2776
6.4480	1.2805
6.4399	1.2703
6.4320	1.2529
6.4240	1.2366
6.4160	1.2270
6.4081	1.2268
6.4002	1.2322
6.3923	1.2349
6.3844	1.2288
6.3766	1.2136
6.3687	1.1929
6.3609	1.1702
6.3531	1.1482
6.3454	1.1316
6.3376	1.1211
6.3299	1.1113
6.3221	1.0996
6.3144	1.0872
6.3068	1.0759
6.2991	1.0671
6.2914	1.0596
6.2838	1.0503
6.2762	1.0400
6.2686	1.0288
6.2611	1.0166
6.2535	1.0051
6.2460	0.9980
6.2385	1.0002
6.2310	1.0066
6.2235	1.0088
6.2160	1.0054
6.2086	0.9963
6.2011	0.9807
6.1937	0.9622
6.1863	0.9473
6.1790	0.9424
6.1716	0.9456
6.1643	0.9529
6.1570	0.9612
6.1496	0.9683
6.1424	0.9707
6.1351	0.9697
6.1278	0.9678
6.1206	0.9661
6.1134	0.9678
6.1062	0.9724
6.0990	0.9800
6.0918	0.9858
6.0847	0.9861
6.0776	0.9805
6.0704	0.9724
6.0633	0.9668
6.0563	0.9673
6.0492	0.9770
6.0421	0.9983
6.0351	1.0242
6.0281	1.0457
6.0211	1.0588
6.0141	1.0659
6.0071	1.0664
6.0002	1.0615
5.9932	1.0532
5.9863	1.0474
5.9794	1.0442
5.9725	1.0415
5.9657	1.0393
5.9588	1.0405
5.9520	1.0437
5.9451	1.0515
5.9383	1.0645
5.9315	1.0850
5.9247	1.1123
5.9180	1.1401
5.9112	1.1650
5.9045	1.1870
5.8978	1.2053
5.8911	1.2258
5.8844	1.2529
5.8777	1.2893
5.8711	1.3367
5.8644	1.3901
5.8578	1.4436
5.8512	1.4900
5.8446	1.5271
5.8380	1.5569
5.8314	1.5837
5.8249	1.6130
5.8184	1.6536
5.8118	1.7080
5.8053	1.7659
5.7988	1.8179
5.7923	1.8601
5.7859	1.8909
5.7794	1.9123
5.7730	1.9297
5.7666	1.9556
5.7602	1.9976
5.7538	2.0500
5.7474	2.1023
5.7410	2.1497
5.7347	2.1875
5.7283	2.2104
5.7220	2.2214
5.7157	2.2288
5.7094	2.2378
5.7031	2.2451
5.6969	2.2434
5.6906	2.2295
5.6844	2.1992
5.6782	2.1477
5.6719	2.0801
5.6657	2.0029
5.6596	1.9226
5.6534	1.8459
5.6472	1.7803
5.6411	1.7307
5.6349	1.6977
5.6288	1.6765
5.6227	1.6663
5.6166	1.6621
5.6106	1.6562
5.6045	1.6467
5.5984	1.6350
5.5924	1.6245
5.5864	1.6150
5.5804	1.6082
5.5744	1.6091
5.5684	1.6167
5.5624	1.6287
5.5564	1.6436
5.5505	1.6623
5.5445	1.6841
5.5386	1.7068
5.5327	1.7300
5.5268	1.7554
5.5209	1.7815
5.5151	1.8076
5.5092	1.8367
5.5033	1.8691
5.4975	1.9033
5.4917	1.9375
5.4859	1.9702
5.4801	2.0010
5.4743	2.0278
5.4685	2.0503
5.4628	2.0720
5.4570	2.0920
5.4513	2.1033
5.4455	2.1018
5.4398	2.0859
5.4341	2.0544
5.4284	2.0083
5.4228	1.9541
5.4171	1.9019
5.4114	1.8533
5.4058	1.8071
5.4002	1.7642
5.3945	1.7236
5.3889	1.6860
5.3833	1.6523
5.3778	1.6257
5.3722	1.6062
5.3666	1.5920
5.3611	1.5818
5.3555	1.5740
5.3500	1.5684
5.3445	1.5671
5.3390	1.5698
5.3335	1.5759
5.3280	1.5840
5.3225	1.5923
5.3171	1.6011
5.3116	1.6103
5.3062	1.6226
5.3008	1.6384
5.2954	1.6562
5.2900	1.6748
5.2846	1.6936
5.2792	1.7104
5.2738	1.7263
5.2684	1.7444
5.2631	1.7668
5.2578	1.7949
5.2524	1.8306
5.2471	1.8745
5.2418	1.9248
5.2365	1.9785
5.2312	2.0347
5.2260	2.0925
5.2207	2.1484
5.2154	2.2004
5.2102	2.2488
5.2050	2.2908
5.1998	2.3223
5.1945	2.3423
5.1893	2.3523
5.1842	2.3547
5.1790	2.3525
5.1738	2.3477
5.1686	2.3435
5.1635	2.3415
5.1584	2.3406
5.1532	2.3401
5.1481	2.3401
5.1430	2.3406
5.1379	2.3408
5.1328	2.3401
5.1277	2.3398
5.1227	2.3425
5.1176	2.3464
5.1126	2.3498
5.1075	2.3503
5.1025	2.3462
5.0975	2.3367
5.0925	2.3213
5.0875	2.3030
5.0825	2.2837
5.0775	2.2649
5.0726	2.2488
5.0676	2.2356
5.0627	2.2273
5.0577	2.2253
5.0528	2.2273
5.0479	2.2322
5.0430	2.2378
5.0380	2.2407
5.0332	2.2402
5.0283	2.2373
5.0234	2.2351
5.0185	2.2353
5.0137	2.2380
5.0088	2.2441
5.0040	2.2519
4.9992	2.2588
4.9944	2.2666
4.9896	2.2820
4.9848	2.3086
4.9800	2.3508
4.9752	2.4092
4.9704	2.4814
4.9657	2.5618
4.9609	2.6428
4.9562	2.7192
4.9514	2.7895
4.9467	2.8511
4.9420	2.9067
4.9373	2.9622
4.9326	3.0237
4.9279	3.0984
4.9232	3.1938
4.9186	3.3176
4.9139	3.4792
4.9092	3.6853
4.9046	3.9414
4.9000	4.2480
4.8953	4.5998
4.8907	4.9844
4.8861	5.3869
4.8815	5.7910
4.8769	6.1846
4.8723	6.5610
4.8678	6.9180
4.8632	7.2568
4.8586	7.5781
4.8541	7.8843
4.8495	8.1770
4.8450	8.4541
4.8405	8.7143
4.8360	8.9597
4.8315	9.1921
4.8270	9.4145
4.8225	9.6260
4.8180	9.8286
4.8135	10.0259
4.8090	10.2175
4.8046	10.4023
4.8001	10.5815
4.7957	10.7583
4.7913	10.9326
4.7868	11.1010
4.7824	11.2619
4.7780	11.4162
4.7736	11.5632
4.7692	11.7036
4.7648	11.8401
4.7605	11.9726
4.7561	12.0998
4.7517	12.2187
4.7474	12.3249
4.7431	12.4177
4.7387	12.4961
4.7344	12.5593
4.7301	12.6047
4.7258	12.6257
4.7215	12.6150
4.7172	12.5625
4.7129	12.4570
4.7086	12.2905
4.7043	12.0605
4.7000	11.7783
4.6958	11.4719
4.6915	11.1858
4.6873	10.9702
4.6831	10.8669
4.6788	10.8972
4.6746	11.0551
4.6704	11.3125
4.6662	11.6296
4.6620	11.9709
4.6578	12.3122
4.6536	12.6438
4.6495	12.9675
4.6453	13.2885
4.6411	13.6054
4.6370	13.9143
4.6328	14.2087
4.6287	14.4782
4.6246	14.7160
4.6205	14.9221
4.6163	15.1013
4.6122	15.2573
4.6081	15.3942
4.6040	15.5151
4.6000	15.6230
4.5959	15.7180
4.5918	15.7973
4.5877	15.8613
4.5837	15.9084
4.5796	15.9362
4.5756	15.9441
4.5716	15.9287
4.5675	15.8908
4.5635	15.8278
4.5595	15.7324
4.5555	15.5983
4.5515	15.4228
4.5475	15.2046
4.5435	14.9472
4.5395	14.6584
4.5356	14.3469
4.5316	14.0141
4.5276	13.6557
4.5237	13.2675
4.5197	12.8498
4.5158	12.4084
4.5119	11.9599
4.5080	11.5290
4.5040	11.1411
4.5001	10.8120
4.4962	10.5490
4.4923	10.3474
4.4884	10.1950
4.4846	10.0749
4.4807	9.9724
4.4768	9.8847
4.4730	9.8213
4.4691	9.7959
4.4652	9.8220
4.4614	9.9082
4.4576	10.0495
4.4537	10.2260
4.4499	10.4121
4.4461	10.5920
4.4423	10.7571
4.4385	10.9070
4.4347	11.0488
4.4309	11.1916
4.4271	11.3425
4.4233	11.5049
4.4196	11.6789
4.4158	11.8667
4.4120	12.0686
4.4083	12.2827
4.4045	12.5117
4.4008	12.7575
4.3971	13.0212
4.3934	13.3003
4.3896	13.5905
4.3859	13.8913
4.3822	14.1989
4.3785	14.5090
4.3748	14.8220
4.3711	15.1377
4.3674	15.4492
4.3638	15.7470
4.3601	16.0251
4.3564	16.2812
4.3528	16.5146
4.3491	16.7253
4.3455	16.9155
4.3418	17.0878
4.3382	17.2392
4.3346	17.3664
4.3310	17.4658
4.3273	17.5378
4.3237	17.5803
4.3201	17.5937
4.3165	17.5808
4.3129	17.5466
4.3094	17.4968
4.3058	17.4362
4.3022	17.3750
4.2986	17.3232
4.2951	17.2895
4.2915	17.2778
4.2880	17.2890
4.2844	17.3217
4.2809	17.3708
4.2774	17.4370
4.2738	17.5266
4.2703	17.6464
4.2668	17.8002
4.2633	17.9768
4.2598	18.1555
4.2563	18.3105
4.2528	18.4194
4.2493	18.4758
4.2458	18.4853
4.2424	18.4677
4.2389	18.4499
4.2354	18.4528
4.2320	18.4853
4.2285	18.5459
4.2251	18.6281
4.2216	18.7214
4.2182	18.8115
4.2148	18.8906
4.2113	18.9558
4.2079	19.0073
4.2045	19.0485
4.2011	19.0852
4.1977	19.1279
4.1943	19.1884
4.1909	19.2734
4.1875	19.3806
4.1841	19.5043
4.1808	19.6386
4.1774	19.7746
4.1740	19.9035
4.1707	20.0241
4.1673	20.1413
4.1640	20.2565
4.1606	20.3688
4.1573	20.4787
4.1540	20.5883
4.1506	20.6950
4.1473	20.7932
4.1440	20.8884
4.1407	20.9868
4.1374	21.0893
4.1341	21.1992
4.1308	21.3220
4.1275	21.4570
4.1242	21.5959
4.1209	21.7355
4.1177	21.8747
4.1144	22.0109
4.1111	22.1423
4.1079	22.2758
4.1046	22.4179
4.1014	22.5676
4.0981	22.7180
4.0949	22.8640
4.0917	23.0024
4.0884	23.1271
4.0852	23.2380
4.0820	23.3408
4.0788	23.4374
4.0756	23.5256
4.0724	23.5998
4.0692	23.6608
4.0660	23.7155
4.0628	23.7634
4.0596	23.8037
4.0565	23.8369
4.0533	23.8598
4.0501	23.8688
4.0470	23.8632
4.0438	23.8510
4.0406	23.8412
4.0375	23.8337
4.0344	23.8295
4.0312	23.8293
4.0281	23.8310
4.0250	23.8354
4.0218	23.8388
4.0187	23.8412
4.0156	23.8439
4.0125	23.8449
4.0094	23.8459
4.0063	23.8498
4.0032	23.8618
4.0001	23.8867
3.9970	23.9203
3.9940	23.9609
3.9909	24.0085
3.9878	24.0612
3.9847	24.1157
3.9817	24.1708
3.9786	24.2316
3.9756	24.2997
3.9725	24.3725
3.9695	24.4489
3.9665	24.5297
3.9634	24.6137
3.9604	24.6962
3.9574	24.7751
3.9544	24.8520
3.9513	24.9230
3.9483	24.9872
3.9453	25.0466
3.9423	25.1037
3.9393	25.1577
3.9363	25.2087
3.9333	25.2543
3.9304	25.2917
3.9274	25.3168
3.9244	25.3315
3.9214	25.3368
3.9185	25.3329
3.9155	25.3156
3.9126	25.2866
3.9096	25.2451
3.9067	25.1940
3.9037	25.1381
3.9008	25.0815
3.8979	25.0236
3.8949	24.9633
3.8920	24.8957
3.8891	24.8198
3.8862	24.7360
3.8833	24.6503
3.8804	24.5651
3.8775	24.4807
3.8746	24.3981
3.8717	24.3188
3.8688	24.2431
3.8659	24.1725
3.8630	24.1105
3.8601	24.0612
3.8573	24.0241
3.8544	23.9963
3.8515	23.9728
3.8487	23.9501
3.8458	23.9255
3.8430	23.8984
3.8401	23.8679
3.8373	23.8378
3.8344	23.8144
3.8316	23.8017
3.8288	23.8005
3.8259	23.8093
3.8231	23.8222
3.8203	23.8332
3.8175	23.8332
3.8147	23.8193
3.8119	23.7936
3.8091	23.7587
3.8063	23.7165
3.8035	23.6694
3.8007	23.6186
3.7979	23.5661
3.7951	23.5109
3.7924	23.4526
3.7896	23.3886
3.7868	23.3168
3.7841	23.2368
3.7813	23.1501
3.7785	23.0583
3.7758	22.9606
3.7730	22.8579
3.7703	22.7507
3.7676	22.6401
3.7648	22.5305
3.7621	22.4269
3.7594	22.3332
3.7566	22.2468
3.7539	22.1662
3.7512	22.0903
3.7485	22.0195
3.7458	21.9514
3.7431	21.8840
3.7404	21.8176
3.7377	21.7551
3.7350	21.6979
3.7323	21.6491
3.7296	21.6113
3.7269	21.5861
3.7242	21.5695
3.7216	21.5551
3.7189	21.5414
3.7162	21.5317
3.7136	21.5268
3.7109	21.5270
3.7083	21.5317
3.7056	21.5419
3.7030	21.5529
3.7003	21.5600
3.6977	21.5622
3.6950	21.5598
3.6924	21.5546
3.6898	21.5495
3.6872	21.5451
3.6845	21.5414
3.6819	21.5344
3.6793	21.5241
3.6767	21.5087
3.6741	21.4870
3.6715	21.4631
3.6689	21.4411
3.6663	21.4182
3.6637	21.3901
3.6611	21.3566
3.6585	21.3171
3.6560	21.2653
3.6534	21.1994
3.6508	21.1262
3.6482	21.0505
3.6457	20.9731
3.6431	20.8998
3.6406	20.8361
3.6380	20.7768
3.6355	20.7126
3.6329	20.6401
3.6304	20.5571
3.6278	20.4665
3.6253	20.3725
3.6227	20.2817
3.6202	20.1984
3.6177	20.1232
3.6152	20.0510
3.6127	19.9777
3.6101	19.8981
3.6076	19.8159
3.6051	19.7304
3.6026	19.6411
3.6001	19.5517
3.5976	19.4689
3.5951	19.3903
3.5926	19.3110
3.5901	19.2309
3.5876	19.1535
3.5852	19.0744
3.5827	18.9890
3.5802	18.8996
3.5777	18.8090
3.5753	18.7160
3.5728	18.6198
3.5704	18.5253
3.5679	18.4397
3.5654	18.3620
3.5630	18.2890
3.5605	18.2158
3.5581	18.1364
3.5557	18.0478
3.5532	17.9484
3.5508	17.8415
3.5484	17.7343
3.5459	17.6308
3.5435	17.5324
3.5411	17.4370
3.5387	17.3418
3.5363	17.2448
3.5338	17.1455
3.5314	17.0398
3.5290	16.9245
3.5266	16.7993
3.5242	16.6638
3.5218	16.5180
3.5195	16.3625
3.5171	16.1987
3.5147	16.0283
3.5123	15.8498
3.5099	15.6662
3.5075	15.4912
3.5052	15.3379
3.5028	15.2175
3.5004	15.1362
3.4981	15.0915
3.4957	15.0720
3.4934	15.0578
3.4910	15.0310
3.4887	14.9824
3.4863	14.9148
3.4840	14.8349
3.4816	14.7500
3.4793	14.6655
3.4770	14.5864
3.4746	14.5112
3.4723	14.4323
3.4700	14.3493
3.4677	14.2695
3.4653	14.1938
3.4630	14.1167
3.4607	14.0324
3.4584	13.9431
3.4561	13.8454
3.4538	13.7360
3.4515	13.6211
3.4492	13.5066
3.4469	13.3938
3.4446	13.2812
3.4423	13.1694
3.4400	13.0581
3.4378	12.9409
3.4355	12.8093
3.4332	12.6611
3.4309	12.4939
3.4287	12.3127
3.4264	12.1311
3.4241	11.9643
3.4219	11.8215
3.4196	11.7050
3.4174	11.6113
3.4151	11.5320
3.4129	11.4614
3.4106	11.4023
3.4084	11.3596
3.4061	11.3340
3.4039	11.3217
3.4017	11.3164
3.3994	11.3061
3.3972	11.2795
3.3950	11.2368
3.3928	11.1811
3.3906	11.1145
3.3883	11.0412
3.3861	10.9634
3.3839	10.8852
3.3817	10.8054
3.3795	10.7295
3.3773	10.6672
3.3751	10.6191
3.3729	10.5813
3.3707	10.5508
3.3685	10.5224
3.3663	10.4909
3.3641	10.4504
3.3620	10.4018
3.3598	10.3489
3.3576	10.2920
3.3554	10.2319
3.3533	10.1709
3.3511	10.1120
3.3489	10.0534
3.3468	9.9944
3.3446	9.9323
3.3425	9.8657
3.3403	9.7966
3.3382	9.7263
3.3360	9.6560
3.3339	9.5876
3.3317	9.5180
3.3296	9.4465
3.3274	9.3725
3.3253	9.2949
3.3232	9.2143
3.3210	9.1330
3.3189	9.0532
3.3168	8.9751
3.3147	8.8950
3.3126	8.8132
3.3104	8.7331
3.3083	8.6555
3.3062	8.5779
3.3041	8.5039
3.3020	8.4363
3.2999	8.3703
3.2978	8.3010
3.2957	8.2268
3.2936	8.1494
3.2915	8.0705
3.2894	7.9880
3.2874	7.9070
3.2853	7.8325
3.2832	7.7627
3.2811	7.6965
3.2790	7.6338
3.2770	7.5747
3.2749	7.5185
3.2728	7.4577
3.2708	7.3896
3.2687	7.3120
3.2666	7.2270
3.2646	7.1382
3.2625	7.0522
3.2605	6.9783
3.2584	6.9189
3.2564	6.8696
3.2543	6.8208
3.2523	6.7659
3.2503	6.7063
3.2482	6.6438
3.2462	6.5808
3.2442	6.5202
3.2421	6.4604
3.2401	6.3987
3.2381	6.3310
3.2361	6.2578
3.2340	6.1865
3.2320	6.1260
3.2300	6.0776
3.2280	6.0376
3.2260	5.9971
3.2240	5.9504
3.2220	5.8967
3.2200	5.8342
3.2180	5.7700
3.2160	5.7119
3.2140	5.6582
3.2120	5.6033
3.2100	5.5439
3.2080	5.4780
3.2060	5.4089
3.2040	5.3423
3.2021	5.2847
3.2001	5.2378
3.1981	5.1960
3.1961	5.1565
3.1942	5.1179
3.1922	5.0735
3.1902	5.0249
3.1883	4.9765
3.1863	4.9292
3.1844	4.8818
3.1824	4.8323
3.1805	4.7820
3.1785	4.7327
3.1766	4.6836
3.1746	4.6384
3.1727	4.6011
3.1707	4.5676
3.1688	4.5322
3.1669	4.4914
3.1649	4.4438
3.1630	4.3913
3.1611	4.3389
3.1591	4.2915
3.1572	4.2495
3.1553	4.2087
3.1534	4.1645
3.1515	4.1169
3.1495	4.0654
3.1476	4.0154
3.1457	3.9734
3.1438	3.9402
3.1419	3.9092
3.1400	3.8777
3.1381	3.8447
3.1362	3.8098
3.1343	3.7727
3.1324	3.7356
3.1305	3.7007
3.1286	3.6677
3.1268	3.6343
3.1249	3.6025
3.1230	3.5723
3.1211	3.5420
3.1192	3.5115
3.1174	3.4814
3.1155	3.4536
3.1136	3.4329
3.1117	3.4211
3.1099	3.4177
3.1080	3.4155
3.1061	3.4070
3.1043	3.3865
3.1024	3.3586
3.1006	3.3259
3.0987	3.2952
3.0969	3.2688
3.0950	3.2493
3.0932	3.2351
3.0913	3.2209
3.0895	3.2034
3.0876	3.1836
3.0858	3.1604
3.0840	3.1328
3.0821	3.1045
3.0803	3.0835
3.0785	3.0713
3.0766	3.0657
3.0748	3.0625
3.0730	3.0591
3.0712	3.0505
3.0694	3.0356
3.0675	3.0193
3.0657	3.0076
3.0639	3.0005
3.0621	2.9973
3.0603	2.9932
3.0585	2.9861
3.0567	2.9741
3.0549	2.9578
3.0531	2.9414
3.0513	2.9289
3.0495	2.9214
3.0477	2.9172
3.0459	2.9141
3.0441	2.9126
3.0423	2.9089
3.0406	2.9021
3.0388	2.8935
3.0370	2.8828
3.0352	2.8689
3.0334	2.8518
3.0317	2.8379
3.0299	2.8330
3.0281	2.8291
3.0264	2.8249
3.0246	2.8218
3.0228	2.8120
3.0211	2.7934
3.0193	2.7690
3.0176	2.7468
3.0158	2.7334
3.0140	2.7226
3.0123	2.7168
3.0105	2.7148
3.0088	2.7080
3.0070	2.6963
3.0053	2.6814
3.0036	2.6660
3.0018	2.6538
3.0001	2.6406
2.9984	2.6269
2.9966	2.6099
2.9949	2.5906
2.9932	2.5776
2.9914	2.5742
2.9897	2.5789
2.9880	2.5869
2.9863	2.5893
2.9845	2.5818
2.9828	2.5632
2.9811	2.5388
2.9794	2.5198
2.9777	2.5081
2.9760	2.5000
2.9743	2.4895
2.9726	2.4695
2.9709	2.4407
2.9692	2.4075
2.9675	2.3755
2.9658	2.3557
2.9641	2.3498
2.9624	2.3545
2.9607	2.3662
2.9590	2.3804
2.9573	2.3938
2.9556	2.3999
2.9539	2.4009
2.9523	2.4048
2.9506	2.4099
2.9489	2.4087
2.9472	2.4036
2.9455	2.3982
2.9439	2.3877
2.9422	2.3684
2.9405	2.3474
2.9389	2.3352
2.9372	2.3306
2.9355	2.3291
2.9339	2.3362
2.9322	2.3525
2.9306	2.3713
2.9289	2.3835
2.9272	2.3845
2.9256	2.3787
2.9239	2.3640
2.9223	2.3467
2.9207	2.3364
2.9190	2.3389
2.9174	2.3523
2.9157	2.3684
2.9141	2.3769
2.9124	2.3765
2.9108	2.3664
2.9092	2.3516
2.9075	2.3423
2.9059	2.3472
2.9043	2.3643
2.9027	2.3848
2.9010	2.3989
2.8994	2.4114
2.8978	2.4258
2.8962	2.4370
2.8946	2.4463
2.8929	2.4563
2.8913	2.4607
2.8897	2.4548
2.8881	2.4495
2.8865	2.4568
2.8849	2.4753
2.8833	2.4944
2.8817	2.5134
2.8801	2.5251
2.8785	2.5193
2.8769	2.4973
2.8753	2.4761
2.8737	2.4624
2.8721	2.4531
2.8705	2.4497
2.8689	2.4607
2.8673	2.4819
2.8658	2.5022
2.8642	2.5129
2.8626	2.5210
2.8610	2.5273
2.8594	2.5305
2.8579	2.5344
2.8563	2.5518
2.8547	2.5815
2.8531	2.6111
2.8516	2.6316
2.8500	2.6426
2.8484	2.6455
2.8469	2.6450
2.8453	2.6477
2.8437	2.6545
2.8422	2.6614
2.8406	2.6680
2.8391	2.6728
2.8375	2.6721
2.8360	2.6667
2.8344	2.6682
2.8329	2.6785
2.8313	2.6846
2.8298	2.6868
2.8282	2.6885
2.8267	2.6838
2.8252	2.6714
2.8236	2.6550
2.8221	2.6443
2.8205	2.6418
2.8190	2.6448
2.8175	2.6531
2.8159	2.6601
2.8144	2.6597
2.8129	2.6555
2.8114	2.6492
2.8098	2.6404
2.8083	2.6311
2.8068	2.6245
2.8053	2.6189
2.8038	2.6111
2.8022	2.6023
2.8007	2.5962
2.7992	2.5859
2.7977	2.5679
2.7962	2.5442
2.7947	2.5171
2.7932	2.4900
2.7917	2.4685
2.7902	2.4541
2.7887	2.4387
2.7872	2.4141
2.7857	2.3831
2.7842	2.3472
2.7827	2.3086
2.7812	2.2749
2.7797	2.2581
2.7782	2.2537
2.7767	2.2461
2.7752	2.2283
2.7738	2.1965
2.7723	2.1511
2.7708	2.1008
2.7693	2.0544
2.7678	2.0249
2.7664	2.0129
2.7649	2.0095
2.7634	2.0015
2.7619	1.9797
2.7605	1.9492
2.7590	1.9153
2.7575	1.8801
2.7561	1.8601
2.7546	1.8689
2.7531	1.9040
2.7517	1.9521
2.7502	2.0034
2.7488	2.0542
2.7473	2.0933
2.7458	2.1169
2.7444	2.1411
2.7429	2.1755
2.7415	2.2207
2.7400	2.2788
2.7386	2.3545
2.7371	2.4399
2.7357	2.5259
2.7343	2.6174
2.7328	2.7122
2.7314	2.8015
2.7299	2.8879
2.7285	2.9709
2.7271	3.0513
2.7256	3.1274
2.7242	3.2134
2.7228	3.3288
2.7213	3.4714
2.7199	3.6462
2.7185	3.8518
2.7171	4.0574
2.7156	4.2295
2.7142	4.3440
2.7128	4.3962
2.7114	4.3845
2.7100	4.3183
2.7085	4.2331
2.7071	4.1702
2.7057	4.1628
2.7043	4.2405
2.7029	4.4270
2.7015	4.7231
2.7001	5.1120
2.6987	5.5869
2.6973	6.1518
2.6959	6.8276
2.6945	7.6411
2.6931	8.6047
2.6917	9.7090
2.6903	10.9033
2.6889	12.1306
2.6875	13.3435
2.6861	14.4961
2.6847	15.5459
2.6833	16.4658
2.6819	17.2509
2.6805	17.9462
2.6791	18.5876
2.6778	19.1855
2.6764	19.7702
2.6750	20.3510
2.6736	20.8764
2.6722	21.2841
2.6709	21.5825
2.6695	21.8718
2.6681	22.2084
2.6667	22.5856
2.6654	23.0617
2.6640	23.6450
2.6626	24.2526
2.6613	24.7880
2.6599	25.2206
2.6585	25.5685
2.6572	25.8359
2.6558	26.0322
2.6545	26.2397
2.6531	26.4804
2.6517	26.7414
2.6504	27.0043
2.6490	27.2402
2.6477	27.4282
2.6463	27.5793
2.6450	27.7292
2.6436	27.9174
2.6423	28.1261
2.6409	28.3500
2.6396	28.5866
2.6382	28.7704
2.6369	28.8461
2.6356	28.8315
2.6342	28.7533
2.6329	28.6506
2.6315	28.5575
2.6302	28.5553
2.6289	28.7052
2.6275	28.9267
2.6262	29.1681
2.6249	29.4067
2.6236	29.5463
2.6222	29.5595
2.6209	29.4787
2.6196	29.4113
2.6183	29.4364
2.6169	29.5400
2.6156	29.7634
2.6143	30.0702
2.6130	30.3134
2.6117	30.4228
2.6103	30.3779
2.6090	30.2248
2.6077	30.0317
2.6064	29.8801
2.6051	29.9001
2.6038	30.1371
2.6025	30.4584
2.6012	30.7023
2.5999	30.7577
2.5986	30.5993
2.5973	30.2892
2.5960	29.9748
2.5947	29.8425
2.5934	30.0165
2.5921	30.3859
2.5908	30.7550
2.5895	31.0080
2.5882	31.0964
2.5869	31.0529
2.5856	30.9750
2.5843	30.9467
2.5830	31.0444
2.5817	31.2336
2.5805	31.4093
2.5792	31.5343
2.5779	31.5827
2.5766	31.5617
2.5753	31.5119
2.5741	31.4613
2.5728	31.4787
2.5715	31.5878
2.5702	31.7306
2.5690	31.8769
2.5677	31.9757
2.5664	31.9799
2.5651	31.9023
2.5639	31.8000
2.5626	31.7655
2.5613	31.8498
2.5601	32.0358
2.5588	32.2780
2.5575	32.4955
2.5563	32.6217
2.5550	32.6488
2.5538	32.6078
2.5525	32.5612
2.5513	32.5619
2.5500	32.6139
2.5487	32.6842
2.5475	32.7458
2.5462	32.7948
2.5450	32.8344
2.5437	32.8583
2.5425	32.8803
2.5413	32.9135
2.5400	32.9418
2.5388	32.9479
2.5375	32.9421
2.5363	32.9421
2.5350	32.9584
2.5338	32.9828
2.5326	33.0158
2.5313	33.0612
2.5301	33.1090
2.5289	33.1515
2.5276	33.1950
2.5264	33.2421
2.5252	33.2902
2.5239	33.3283
2.5227	33.3571
2.5215	33.3754
2.5202	33.3805
2.5190	33.3820
2.5178	33.3964
2.5166	33.4220
2.5154	33.4584
2.5141	33.5097
2.5129	33.5690
2.5117	33.6200
2.5105	33.6545
2.5093	33.6789
2.5081	33.7033
2.5068	33.7192
2.5056	33.7287
2.5044	33.7438
2.5032	33.7611
2.5020	33.7797
2.5008	33.8061
2.4996	33.8495
2.4984	33.9223
2.4972	34.0150
2.4960	34.1064
2.4948	34.1842
2.4936	34.2372
2.4924	34.2648
2.4912	34.2748
2.4900	34.2777
2.4888	34.2975
2.4876	34.3439
2.4864	34.4057
2.4852	34.4755
2.4840	34.5483
2.4828	34.6242
2.4816	34.6940
2.4805	34.7458
2.4793	34.7929
2.4781	34.8468
2.4769	34.8969
2.4757	34.9342
2.4745	34.9643
2.4734	34.9977
2.4722	35.0280
2.4710	35.0534
2.4698	35.0898
2.4686	35.1464
2.4675	35.2121
2.4663	35.2768
2.4651	35.3368
2.4640	35.3937
2.4628	35.4469
2.4616	35.5004
2.4604	35.5558
2.4593	35.6117
2.4581	35.6625
2.4569	35.7062
2.4558	35.7360
2.4546	35.7550
2.4535	35.7773
2.4523	35.8119
2.4511	35.8586
2.4500	35.9047
2.4488	35.9486
2.4477	35.9953
2.4465	36.0409
2.4454	36.0885
2.4442	36.1483
2.4431	36.2226
2.4419	36.3022
2.4408	36.3771
2.4396	36.4469
2.4385	36.5116
2.4373	36.5717
2.4362	36.6344
2.4350	36.7057
2.4339	36.7794
2.4327	36.8551
2.4316	36.9389
2.4305	37.0253
2.4293	37.1073
2.4282	37.1820
2.4270	37.2553
2.4259	37.3351
2.4248	37.4220
2.4236	37.5219
2.4225	37.6271
2.4214	37.7270
2.4202	37.8158
2.4191	37.8842
2.4180	37.9362
2.4169	37.9906
2.4157	38.0568
2.4146	38.1422
2.4135	38.2306
2.4124	38.3170
2.4112	38.4054
2.4101	38.4823
2.4090	38.5358
2.4079	38.5736
2.4068	38.6059
2.4056	38.6408
2.4045	38.6759
2.4034	38.7177
2.4023	38.7719
2.4012	38.8251
2.4001	38.8600
2.3990	38.8844
2.3979	38.9071
2.3967	38.9311
2.3956	38.9625
2.3945	38.9989
2.3934	39.0319
2.3923	39.0563
2.3912	39.0719
2.3901	39.0822
2.3890	39.0853
2.3879	39.0780
2.3868	39.0687
2.3857	39.0582
2.3846	39.0531
2.3835	39.0722
2.3824	39.1310
2.3813	39.2233
2.3802	39.3283
2.3791	39.4267
2.3781	39.5119
2.3770	39.5783
2.3759	39.6198
2.3748	39.6510
2.3737	39.6876
2.3726	39.7243
2.3715	39.7548
2.3704	39.7785
2.3694	39.8034
2.3683	39.8327
2.3672	39.8568
2.3661	39.8888
2.3650	39.9335
2.3640	39.9784
2.3629	40.0214
2.3618	40.0624
2.3607	40.1039
2.3597	40.1498
2.3586	40.1974
2.3575	40.2584
2.3564	40.3295
2.3554	40.3932
2.3543	40.4415
2.3532	40.4787
2.3522	40.5067
2.3511	40.5233
2.3500	40.5338
2.3490	40.5521
2.3479	40.5748
2.3468	40.6015
2.3458	40.6422
2.3447	40.7113
2.3436	40.7995
2.3426	40.8851
2.3415	40.9579
2.3405	41.0048
2.3394	41.0182
2.3384	41.0167
2.3373	41.0297
2.3363	41.0797
2.3352	41.1671
2.3342	41.2858
2.3331	41.4179
2.3321	41.5343
2.3310	41.6124
2.3300	41.6508
2.3289	41.6725
2.3279	41.6986
2.3268	41.7496
2.3258	41.8439
2.3247	41.9650
2.3237	42.0907
2.3226	42.1918
2.3216	42.2518
2.3206	42.2843
2.3195	42.2992
2.3185	42.3134
2.3175	42.3422
2.3164	42.3717
2.3154	42.3993
2.3144	42.4232
2.3133	42.4420
2.3123	42.4652
2.3113	42.4962
2.3102	42.5390
2.3092	42.5946
2.3082	42.6557
2.3071	42.7228
2.3061	42.7926
2.3051	42.8512
2.3041	42.8930
2.3030	42.9181
2.3020	42.9247
2.3010	42.9203
2.3000	42.9286
2.2990	42.9679
2.2979	43.0353
2.2969	43.1181
2.2959	43.2015
2.2949	43.2699
2.2939	43.3053
2.2929	43.3136
2.2918	43.3197
2.2908	43.3388
2.2898	43.3717
2.2888	43.4108
2.2878	43.4479
2.2868	43.4808
2.2858	43.5011
2.2848	43.5167
2.2838	43.5321
2.2828	43.5487
2.2818	43.5631
2.2808	43.5714
2.2798	43.5780
2.2787	43.5932
2.2777	43.6100
2.2767	43.6237
2.2757	43.6266
2.2747	43.6159
2.2738	43.5936
2.2728	43.5785
2.2718	43.5790
2.2708	43.5927
2.2698	43.6049
2.2688	43.6066
2.2678	43.5968
2.2668	43.5834
2.2658	43.5702
2.2648	43.5795
2.2638	43.6005
2.2628	43.6034
2.2618	43.5646
2.2609	43.4901
2.2599	43.3986
2.2589	43.3085
2.2579	43.2296
2.2569	43.1820
2.2559	43.1505
2.2550	43.1144
2.2540	43.0643
2.2530	43.0121
2.2520	42.9703
2.2510	42.9391
2.2501	42.9223
2.2491	42.9181
2.2481	42.9027
2.2471	42.8707
2.2462	42.8146
2.2452	42.7465
2.2442	42.6862
2.2433	42.6461
2.2423	42.6351
2.2413	42.6420
2.2403	42.6469
2.2394	42.6347
2.2384	42.5868
2.2374	42.5162
2.2365	42.4474
2.2355	42.3922
2.2345	42.3541
2.2336	42.3334
2.2326	42.3268
2.2317	42.3161
2.2307	42.2912
2.2297	42.2611
2.2288	42.2352
2.2278	42.2111
2.2269	42.1796
2.2259	42.1317
2.2250	42.0595
2.2240	41.9542
2.2231	41.8207
2.2221	41.6767
2.2211	41.5480
2.2202	41.4508
2.2192	41.3778
2.2183	41.3136
2.2173	41.2489
2.2164	41.1618
2.2155	41.0377
2.2145	40.8915
2.2136	40.7326
2.2126	40.5600
2.2117	40.3795
2.2107	40.2164
2.2098	40.0919
2.2088	40.0006
2.2079	39.9699
2.2070	40.0272
2.2060	40.1435
2.2051	40.2789
2.2041	40.4157
2.2032	40.5431
2.2023	40.6498
2.2013	40.7348
2.2004	40.8339
2.1995	40.9513
2.1985	41.0548
2.1976	41.1410
2.1967	41.2284
2.1957	41.3168
2.1948	41.4015
2.1939	41.4989
2.1930	41.6200
2.1920	41.7321
2.1911	41.8082
2.1902	41.8725
2.1893	41.9511
2.1883	42.0353
2.1874	42.1115
2.1865	42.1945
2.1856	42.2875
2.1846	42.3634
2.1837	42.4191
2.1828	42.4757
2.1819	42.5441
2.1810	42.6217
2.1800	42.7025
2.1791	42.7907
2.1782	42.8798
2.1773	42.9530
2.1764	43.0189
2.1755	43.0853
2.1746	43.1576
2.1736	43.2406
2.1727	43.3248
2.1718	43.3944
2.1709	43.4508
2.1700	43.5057
2.1691	43.5746
2.1682	43.6640
2.1673	43.7672
2.1664	43.8717
2.1655	43.9596
2.1646	44.0106
2.1637	44.0470
2.1628	44.0851
2.1619	44.1229
2.1610	44.1688
2.1601	44.2296
2.1592	44.3104
2.1583	44.4074
2.1574	44.4950
2.1565	44.5765
2.1556	44.6454
2.1547	44.6815
2.1538	44.6908
2.1529	44.6962
2.1520	44.7243
2.1511	44.7850
2.1502	44.8641
2.1493	44.9657
2.1484	45.0846
2.1475	45.1930
2.1466	45.2623
2.1458	45.2972
2.1449	45.3314
2.1440	45.3717
2.1431	45.4032
2.1422	45.4210
2.1413	45.4130
2.1404	45.3605
2.1396	45.2689
2.1387	45.1869
2.1378	45.1742
2.1369	45.2360
2.1360	45.3317
2.1352	45.4183
2.1343	45.4650
2.1334	45.4528
2.1325	45.4042
2.1316	45.3495
2.1308	45.3263
2.1299	45.3483
2.1290	45.3912
2.1281	45.4376
2.1273	45.4930
2.1264	45.5392
2.1255	45.5580
2.1247	45.5375
2.1238	45.5035
2.1229	45.4767
2.1220	45.4598
2.1212	45.4545
2.1203	45.4725
2.1194	45.5057
2.1186	45.5138
2.1177	45.4840
2.1168	45.4515
2.1160	45.4330
2.1151	45.4232
2.1143	45.4022
2.1134	45.3710
2.1125	45.3480
2.1117	45.3060
2.1108	45.2513
2.1100	45.2245
2.1091	45.2379
2.1082	45.2799
2.1074	45.3285
2.1065	45.3773
2.1057	45.4249
2.1048	45.4525
2.1040	45.4655
2.1031	45.4725
2.1023	45.4750
2.1014	45.4728
2.1005	45.4708
2.0997	45.4677
2.0988	45.4518
2.0980	45.4349
2.0971	45.4303
2.0963	45.4281
2.0955	45.4266
2.0946	45.4259
2.0938	45.4432
2.0929	45.4713
2.0921	45.4725
2.0912	45.4550
2.0904	45.4474
2.0895	45.4462
2.0887	45.4215
2.0879	45.3680
2.0870	45.3212
2.0862	45.2675
2.0853	45.1715
2.0845	45.1425
2.0837	45.1469
2.0828	45.2106
2.0820	45.4176
2.0812	45.2599
2.0803	45.3842
2.0795	45.2804
2.0760	45.3142
2.0720	44.9671
2.0680	45.0463
2.0640	44.9109
2.0600	44.8768
2.0560	44.4288
2.0520	44.3590
2.0480	44.1433
2.0440	44.1447
2.0400	43.8544
2.0360	43.5726
2.0320	43.3175
2.0280	43.4641
2.0240	42.9929
2.0200	42.6883
2.0160	42.5543
2.0120	42.4191
2.0080	42.2785
2.0040	41.9712
2.0000	41.6457
1.9960	41.3377
1.9920	40.6985
1.9880	40.4112
1.9840	40.0209
1.9800	39.4446
1.9760	39.2389
1.9720	38.7797
1.9680	38.4309
1.9640	38.1833
1.9600	38.0936
1.9560	37.6531
1.9520	37.2572
1.9480	36.7760
1.9440	36.4830
1.9400	36.2634
1.9360	35.5348
1.9320	35.1979
1.9280	34.7448
1.9240	34.8408
1.9200	34.7188
1.9160	34.2165
1.9120	33.7879
1.9080	33.8576
1.9040	33.5736
1.9000	34.0682
1.8960	35.2144
1.8920	37.0111
1.8880	39.0500
1.8840	40.3090
1.8800	41.9572
1.8760	43.2815
1.8720	44.3150
1.8680	45.4421
1.8640	46.7835
1.8600	47.3066
1.8560	47.4334
1.8520	47.3485
1.8480	47.7763
1.8440	47.8872
1.8400	48.0870
1.8360	48.1623
1.8320	48.3248
1.8280	48.3773
1.8240	48.4482
1.8200	48.2445
1.8160	48.2530
1.8120	48.4679
1.8080	48.1788
1.8040	48.1847
1.8000	48.2637
1.7960	48.1895
1.7920	48.1048
1.7880	47.8711
1.7840	47.9202
1.7800	48.1285
1.7760	48.0679
1.7720	48.0731
1.7680	48.1723
1.7640	48.2164
1.7600	48.3163
1.7560	48.5903
1.7520	48.4892
1.7480	48.2220
1.7440	48.2277
1.7400	48.3879
1.7360	48.3773
1.7320	48.3660
1.7280	48.4048
1.7240	48.5123
1.7200	48.5110
1.7160	48.2911
1.7120	47.9447
1.7080	48.1048
1.7040	48.0802
1.7000	48.0065
1.6960	48.1048
1.6920	48.3275
1.6880	48.3523
1.6840	48.2165
1.6800	48.1051
1.6760	48.0741
1.6720	48.1109
1.6680	48.1300
1.6640	48.0989
1.6600	48.3915
1.6560	48.2737
1.6520	48.1986
1.6480	48.0989
1.6440	48.2486
1.6400	48.4113
1.6360	48.0369
1.6320	47.7747
1.6280	47.6259
1.6240	47.6373
1.6200	47.9057
1.6160	47.2456
1.6120	47.1949
1.6080	47.1641
1.6040	47.3437
1.6000	47.3191
1.5960	47.3606
1.5920	47.5908
1.5880	47.6726
1.5840	47.6229
1.5800	47.4842
1.5760	47.0660
1.5720	46.9595
1.5680	47.0905
1.5640	47.3528
1.5600	47.2135
1.5560	47.0173
1.5520	47.0996
1.5480	47.1314
1.5440	46.9510
1.5400	46.8775
1.5360	47.1467
1.5320	46.8354
1.5280	46.4758
1.5240	46.2486
1.5200	45.8993
1.5160	46.0453
1.5120	45.8312
1.5080	45.6764
1.5040	45.4507
1.5000	45.1021
1.4960	45.5932
1.4920	45.5445
1.4880	45.3870
1.4840	45.2663
1.4800	45.1209
1.4760	44.8085
1.4720	44.6996
1.4680	44.4345
1.4640	44.3729
1.4600	44.3167
1.4560	43.8670
1.4520	43.5132
1.4480	43.4810
1.4440	43.5410
1.4400	43.3761
1.4360	43.2670
1.4320	43.1881
1.4280	43.0659
1.4240	42.8202
1.4200	42.3594
1.4160	42.1240
1.4120	41.7168
1.4080	41.4368
1.4040	41.3965
1.4000	41.7055
1.3960	42.4787
1.3920	43.3989
1.3880	43.6726
1.3840	44.0712
1.3800	44.5726
1.3760	45.0654
1.3720	45.4014
1.3680	45.6798
1.3640	46.0148
1.3600	46.0796
1.3560	46.0893
1.3520	45.8636
1.3480	46.2608
1.3440	46.1256
1.3400	46.1170
1.3360	46.0549
1.3320	45.9872
1.3280	46.2316
1.3240	46.2666
1.3200	46.2420
1.3160	46.4009
1.3120	46.6201
1.3080	46.6201
1.3040	46.5247
1.3000	46.3548
1.2960	46.4042
1.2920	46.3101
1.2880	46.6779
1.2840	46.6569
1.2800	46.6127
1.2760	46.4795
1.2720	46.3057
1.2680	46.0807
1.2640	46.0183
1.2600	45.7803
1.2560	45.8305
1.2520	45.3314
1.2480	44.6761
1.2440	44.7002
1.2400	44.5248
1.2360	44.4850
1.2320	44.5435
1.2280	44.6398
1.2240	44.8878
1.2200	45.4868
1.2160	45.5181
1.2120	45.1698
1.2080	44.5248
1.2040	44.3651
1.2000	44.0577
1.1960	44.0104
1.1920	43.9633
1.1880	43.8693
1.1840	43.8224
1.1800	43.7990
1.1760	43.7057
1.1720	43.6535
1.1680	43.6535
1.1640	43.5895
1.1600	43.4433
1.1560	43.4069
1.1520	43.3383
1.1480	43.4319
1.1440	43.9518
1.1400	43.7962
1.1360	43.4221
1.1320	43.0165
1.1280	43.8257
1.1240	43.8736
1.1200	43.3727
1.1160	43.3456
1.1120	43.6213
1.1080	43.6930
1.1040	43.3849
1.1000	43.1960
1.0960	42.8072
1.0920	42.9049
1.0880	42.9993
1.0840	42.7601
1.0800	41.8469
1.0760	41.9615
1.0720	42.2853
1.0680	41.9846
1.0640	41.6395
1.0600	41.9614
1.0560	41.9844
1.0520	41.8925
1.0480	41.7305
1.0440	41.9154
1.0400	41.4405
1.0360	41.1813
1.0320	40.6665
1.0280	40.8087
1.0240	40.7639
1.0200	40.4184
1.0160	40.4769
1.0120	40.3654
1.0080	40.2942
1.0040	39.9157
1.0000	39.8472
0.9960	39.7152
0.9920	39.3678
0.9880	38.9640
0.9840	38.8680
0.9800	39.0204
0.9760	38.6640
0.9720	38.3055
0.9680	38.4961
0.9640	38.2211
0.9600	38.3050
0.9560	38.2408
0.9520	37.8579
0.9480	37.6025
0.9440	37.4102
0.9400	37.0305
0.9360	36.8520
0.9320	36.8713
0.9280	36.5226
0.9240	36.2893
0.9200	36.2478
0.9160	35.9588
0.9120	35.7660
0.9080	35.8863
0.9040	35.3978
0.9000	35.2032
0.8960	34.8314
0.8920	34.8515
0.8880	34.5388
0.8840	34.5590
0.8800	34.3235
0.8760	34.0669
0.8720	33.7679
0.8680	33.8254
0.8640	33.7225
0.8600	33.6647
0.8560	33.4840
0.8520	33.2405
0.8480	33.2685
0.8440	33.2646
0.8400	32.8278
0.8360	32.8416
0.8320	32.8852
0.8280	32.7842
0.8240	32.5820
0.8200	32.6555
0.8160	32.1913
0.8120	32.1089
0.8080	32.1089
0.8040	31.7120
0.8000	31.8593
0.7990	31.6224
0.7980	31.6165
0.7970	31.6799
0.7960	31.6192
0.7950	31.9560
0.7940	31.6386
0.7930	31.8422
0.7920	31.3008
0.7910	31.2816
0.7900	31.4617
0.7890	31.4232
0.7880	31.2625
0.7870	31.3201
0.7860	31.6235
0.7850	31.4070
0.7840	31.6823
0.7830	31.6823
0.7820	31.3851
0.7810	31.3436
0.7800	31.3241
0.7790	31.3241
0.7780	30.9466
0.7770	31.0430
0.7760	31.4021
0.7750	31.1627
0.7740	31.3241
0.7730	30.8509
0.7720	30.8700
0.7710	30.8465
0.7700	30.8848
0.7690	30.8656
0.7680	30.6457
0.7670	30.4606
0.7660	30.7653
0.7650	30.6839
0.7640	30.3437
0.7630	30.3059
0.7620	30.3437
0.7610	30.1606
0.7600	30.1042
0.7590	30.1042
0.7580	30.1042
0.7570	30.3617
0.7560	30.4382
0.7550	30.1213
0.7540	29.7737
0.7530	30.0767
0.7520	30.0957
0.7510	29.8546
0.7500	29.7420
0.7490	29.7607
0.7480	29.7982
0.7470	29.6405
0.7460	29.3447
0.7450	29.4001
0.7440	29.5489
0.7430	29.6237
0.7420	29.4467
0.7410	29.3816
0.7400	29.2050
0.7390	29.0658
0.7380	29.0658
0.7370	29.1026
0.7360	29.0658
0.7350	28.8242
0.7340	28.8127
0.7330	28.6672
0.7320	28.6310
0.7310	28.8310
0.7300	28.6738
0.7290	28.5523
0.7280	28.6068
0.7270	28.5479
0.7260	28.4082
0.7250	28.2326
0.7240	28.1965
0.7230	28.0576
0.7220	27.9366
0.7210	27.9544
0.7200	28.0619
0.7190	27.6537
0.7180	27.7833
0.7170	27.4702
0.7160	27.3666
0.7150	27.3841
0.7140	27.6113
0.7130	27.5074
0.7120	27.3518
0.7110	27.0287
0.7100	27.2297
0.7090	27.1862
0.7080	27.2567
0.7070	27.1346
0.7060	26.8116
0.7050	26.4995
0.7040	26.5166
0.7030	26.5507
0.7020	26.4631
0.7010	26.5945
0.7000	26.4898
0.6990	26.1854
0.6980	26.4978
0.6970	26.4128
0.6960	25.9786
0.6950	25.9736
0.6940	26.2145
0.6930	25.8925
0.6920	25.9097
0.6910	25.8068
0.6900	25.7047
0.6890	25.5639
0.6880	25.5977
0.6870	25.4906
0.6860	25.6260
0.6850	25.8020
0.6840	25.7285
0.6830	25.3532
0.6820	25.2689
0.6810	24.7982
0.6800	24.8869
0.6790	25.0195
0.6780	25.0528
0.6770	24.7228
0.6760	24.3743
0.6750	24.3259
0.6740	24.4229
0.6730	24.3148
0.6720	24.4611
0.6710	24.3796
0.6700	24.1583
0.6690	24.1222
0.6680	23.8623
0.6670	23.8016
0.6660	23.6301
0.6650	23.7564
0.6640	23.7112
0.6630	23.6954
0.6620	23.9320
0.6610	24.0126
0.6600	23.6969
0.6590	23.6492
0.6580	23.1795
0.6570	23.1332
0.6560	23.0085
0.6550	22.6802
0.6540	23.0380
0.6530	23.0070
0.6520	23.0070
0.6510	23.0070
0.6500	23.3050
0.6490	22.9916
0.6480	23.0233
0.6470	22.5402
0.6460	22.6650
0.6450	22.6346
0.6440	22.4606
0.6430	22.2255
0.6420	22.1807
0.6410	22.1063
0.6400	21.7767
0.6390	21.7691
0.6380	22.0582
0.6370	21.9768
0.6360	22.1091
0.6350	21.7968
0.6340	21.7819
0.6330	21.6413
0.6320	21.2966
0.6310	21.5968
0.6300	21.3255
0.6290	21.3255
0.6280	21.5898
0.6270	21.5600
0.6260	21.1567
0.6250	21.1914
0.6240	20.5157
0.6230	20.4042
0.6220	20.4042
0.6210	20.5651
0.6200	20.3566
0.6190	20.6076
0.6180	20.5509
0.6170	20.7361
0.6160	20.1652
0.6150	20.0690
0.6140	20.0416
0.6130	19.9161
0.6120	19.7906
0.6110	19.9388
0.6100	19.4334
0.6090	19.4334
0.6080	19.1576
0.6070	19.4553
0.6060	19.3306
0.6050	19.2192
0.6040	18.5847
0.6030	18.5230
0.6020	18.4482
0.6010	18.8695
0.6000	18.7217
0.5990	18.2594
0.5980	18.3619
0.5970	18.6427
0.5960	18.2719
0.5950	17.8456
0.5940	17.6414
0.5930	17.5623
0.5920	17.6372
0.5910	17.5201
0.5900	17.4704
0.5890	17.3658
0.5880	17.0139
0.5870	16.9676
0.5860	17.0537
0.5850	16.6412
0.5840	16.2489
0.5830	16.2953
0.5820	16.2258
0.5810	16.1431
0.5800	16.3366
0.5790	15.7734
0.5780	15.8215
0.5770	15.3656
0.5760	15.5880
0.5750	15.4150
0.5740	14.8962
0.5730	14.7594
0.5720	14.3437
0.5710	14.1687
0.5700	13.9783
0.5690	13.7474
0.5680	13.9866
0.5670	13.8810
0.5660	13.3027
0.5650	13.3580
0.5640	13.3580
0.5630	12.7995
0.5620	13.0188
0.5610	12.3586
0.5600	12.1587
0.5590	11.8300
0.5580	11.6812
0.5570	11.6562
0.5560	11.4012
0.5550	11.1225
0.5540	10.7534
0.5530	10.4997
0.5520	10.3842
0.5510	10.0590
0.5500	9.9866
0.5490	9.8108
0.5480	9.8472
0.5470	9.5968
0.5460	9.4505
0.5450	9.4575
0.5440	9.3745
0.5430	9.1511
0.5420	8.8860
0.5410	8.6281
0.5400	8.6610
0.5390	8.5155
0.5380	8.4960
0.5370	8.2577
0.5360	8.2324
0.5350	8.1133
0.5340	8.1509
0.5330	7.9175
0.5320	7.7431
0.5310	7.7310
0.5300	7.7191
0.5290	7.3320
0.5280	7.3320
0.5270	7.3377
0.5260	7.2297
0.5250	7.2126
0.5240	7.2183
0.5230	6.9690
0.5220	6.7229
0.5210	6.8975
0.5200	6.9251
0.5190	6.6181
0.5180	6.6181
0.5170	6.6778
0.5160	6.5355
0.5150	6.5461
0.5140	6.4986
0.5130	6.4933
0.5120	6.5196
0.5110	6.5408
0.5100	6.5355
0.5090	5.9734
0.5080	5.9734
0.5070	5.8381
0.5060	5.8714
0.5050	5.5501
0.5040	5.5635
0.5030	5.5590
0.5020	5.5949
0.5010	5.5994
0.5000	5.4686
0.4990	5.5949
0.4980	5.6329
0.4970	5.2330
0.4960	5.6236
0.4950	5.6561
0.4940	5.4114
0.4930	5.2159
0.4920	5.0603
0.4910	4.9060
0.4900	5.0686
0.4890	4.9298
0.4880	5.0728
0.4870	4.9508
0.4860	4.7957
0.4850	4.6733
0.4840	4.7002
0.4830	4.6963
0.4820	4.6925
0.4810	4.7118
0.4800	4.7118
0.4790	4.6963
0.4780	4.2550
0.4770	4.2584
0.4760	4.2651
0.4750	4.1130
0.4740	4.1098
0.4730	3.8643
0.4720	3.8582
0.4710	3.8552
0.4700	3.8522
0.4690	4.1098
0.4680	3.6931
0.4670	3.8552
0.4660	3.7338
0.4650	3.8643
0.4640	3.7072
0.4630	3.7129
0.4620	3.5336
0.4610	3.5795
0.4600	3.4215
0.4590	3.7456
0.4580	3.7968
0.4570	3.3859
0.4560	3.3786
0.4550	3.0508
0.4540	3.0528
0.4530	3.0588
0.4520	2.9271
0.4510	3.0608
0.4500	3.0648
0.4490	2.9169
0.4480	2.7898
0.4470	2.7777
0.4460	2.6114
0.4450	2.6190
0.4440	2.7509
0.4430	2.5821
0.4420	2.1239
0.4410	2.4560
0.4400	2.4625
0.4390	2.4560
0.4380	1.9982
0.4370	2.0013
0.4360	2.0044
0.4350	2.0106
0.4340	1.8375
0.4330	1.8386
0.4320	1.8380
0.4310	1.6679
0.4300	1.6695
0.4290	1.4996
0.4280	1.4987
0.4270	1.3688
0.4260	1.2001
0.4250	1.3298
0.4240	1.4994
0.4230	1.3290
0.4220	1.1963
0.4210	0.8491
0.4200	0.9788
0.4190	0.9825
0.4180	0.8164
0.4170	0.8226
0.4160	0.9527
0.4150	0.7862
0.4140	0.7836
0.4130	0.7791
0.4120	0.6101
0.4110	0.7446
0.4100	0.6189
0.4090	0.6146
0.4080	0.6101
0.4070	0.2702
0.4060	0.2655
0.4050	0.3916
0.4040	0.2655
0.4030	0.2623
0.4020	0.2510
0.4010	0.0858
0.4000	0.0709
