Name:  Brown sandy loam
Type:  Soils
Class:  Alfisol
Subclass:  Paleustalf
Particle Size:  see additional information
Sample No.:  87P2410
Owner:  JHU
Wavelength range:  All
Origin:  Llano Co., Tx. via USDA Soil Conservation service.

Description:  The parent material is granitic rock from level or 
undulating plains.  Brown sandy loam (fine, mixed, thermic udic).




Measurement:  Directional (10 degree) hemispherical reflectance
First Column:  X
Second Column:  Y
X Units:  Wavelength (micrometers)
Y Units:  Reflectance (percent)
First X Value:  14.0112
Last X Value:  0.4000
Number of X Values:  2844
Additional information:  87P2410a.txt

14.0112	2.0520
13.9734	2.0413
13.9359	1.9094
13.8985	1.9766
13.8614	2.0522
13.8244	2.0984
13.7876	2.1201
13.7511	2.1460
13.7147	2.1626
13.6785	2.1582
13.6425	2.1477
13.6067	2.1873
13.5711	2.1995
13.5356	2.1894
13.5004	2.1943
13.4653	2.1956
13.4304	2.2368
13.3957	2.3015
13.3612	2.2480
13.3269	2.2158
13.2927	2.2724
13.2587	2.3037
13.2249	2.3259
13.1912	2.3760
13.1577	2.3418
13.1244	2.3245
13.0913	2.3447
13.0583	2.4094
13.0255	2.4346
12.9929	2.4353
12.9604	2.4365
12.9281	2.4631
12.8959	2.5720
12.8639	2.6477
12.8321	2.6370
12.8004	2.6435
12.7688	2.5532
12.7375	2.4070
12.7063	2.2353
12.6752	2.1521
12.6443	2.0879
12.6135	2.0862
12.5829	2.1731
12.5524	2.2712
12.5221	2.3124
12.4919	2.2768
12.4619	2.1816
12.4320	2.0488
12.4023	1.8455
12.3727	1.6457
12.3432	1.5178
12.3139	1.4668
12.2847	1.4944
12.2557	1.5435
12.2268	1.6335
12.1980	1.7585
12.1694	1.7827
12.1409	1.7976
12.1125	1.9065
12.0843	2.0298
12.0562	2.1284
12.0282	2.1897
12.0003	2.2270
11.9726	2.3276
11.9450	2.4087
11.9176	2.5178
11.8903	2.5940
11.8631	2.6333
11.8360	2.6604
11.8090	2.7085
11.7822	2.7717
11.7555	2.8184
11.7289	2.8323
11.7024	2.8684
11.6760	2.9287
11.6498	2.9714
11.6237	2.9636
11.5977	2.9372
11.5718	2.9072
11.5460	2.9150
11.5203	2.8982
11.4948	2.9177
11.4694	2.9409
11.4440	2.9617
11.4188	2.9814
11.3937	3.0090
11.3688	3.0146
11.3439	3.0156
11.3191	3.0059
11.2944	3.0632
11.2699	3.1238
11.2455	3.1326
11.2211	3.0691
11.1969	3.0505
11.1727	3.0654
11.1487	3.0933
11.1248	3.0767
11.1010	3.0549
11.0773	3.0561
11.0536	3.0244
11.0301	2.9866
11.0067	3.0095
10.9834	2.9753
10.9602	2.9238
10.9370	2.9263
10.9140	2.9382
10.8911	2.9392
10.8682	2.9756
10.8455	2.9582
10.8229	2.9651
10.8003	2.9785
10.7779	3.0127
10.7555	3.0268
10.7332	3.0217
10.7111	3.0132
10.6890	3.0322
10.6670	3.0583
10.6451	3.0940
10.6233	3.1211
10.6015	3.1184
10.5799	3.1113
10.5584	3.1250
10.5369	3.1499
10.5155	3.1980
10.4942	3.2158
10.4730	3.2319
10.4519	3.2471
10.4309	3.3008
10.4099	3.3249
10.3891	3.3281
10.3683	3.3686
10.3476	3.3913
10.3270	3.4065
10.3065	3.4770
10.2860	3.5139
10.2656	3.5393
10.2454	3.5903
10.2251	3.6650
10.2050	3.7014
10.1850	3.7473
10.1650	3.8176
10.1451	3.9133
10.1253	3.9722
10.1056	4.0393
10.0859	4.0933
10.0663	4.1999
10.0468	4.3247
10.0274	4.3860
10.0080	4.4082
9.9887	4.4307
9.9695	4.4787
9.9504	4.6401
9.9313	4.7092
9.9123	4.7046
9.8934	4.7151
9.8746	4.7474
9.8558	4.7392
9.8371	4.7444
9.8185	4.8193
9.7999	4.9070
9.7814	4.9424
9.7630	4.9814
9.7447	5.0740
9.7264	5.1743
9.7082	5.2480
9.6900	5.3472
9.6719	5.4470
9.6539	5.5234
9.6360	5.5676
9.6181	5.6179
9.6003	5.6528
9.5825	5.7639
9.5649	5.8618
9.5472	5.9158
9.5297	5.9929
9.5122	6.0769
9.4948	6.1631
9.4774	6.2610
9.4601	6.3948
9.4429	6.5575
9.4257	6.6977
9.4086	6.8174
9.3916	7.0322
9.3746	7.3154
9.3577	7.5227
9.3408	7.6982
9.3240	7.8606
9.3073	7.9638
9.2906	7.9858
9.2740	8.0068
9.2574	7.9773
9.2409	7.9468
9.2245	7.9106
9.2081	7.9038
9.1918	7.8989
9.1755	7.8496
9.1593	7.7961
9.1431	7.7483
9.1270	7.6716
9.1110	7.6284
9.0950	7.5703
9.0791	7.4931
9.0632	7.4167
9.0474	7.3457
9.0316	7.3130
9.0159	7.3362
9.0003	7.3371
8.9847	7.2573
8.9691	7.2109
8.9536	7.3120
8.9382	7.3884
8.9228	7.3950
8.9075	7.4619
8.8922	7.5593
8.8770	7.6118
8.8618	7.6155
8.8467	7.6484
8.8316	7.6521
8.8166	7.6075
8.8016	7.6247
8.7867	7.6169
8.7718	7.5718
8.7570	7.5520
8.7422	7.5359
8.7275	7.5224
8.7129	7.5215
8.6982	7.4199
8.6837	7.2541
8.6692	7.0356
8.6547	6.6809
8.6403	6.3201
8.6259	6.2014
8.6116	6.3996
8.5973	6.7875
8.5830	7.1294
8.5688	7.3650
8.5547	7.5010
8.5406	7.6262
8.5266	7.7593
8.5126	7.7993
8.4986	7.8313
8.4847	7.9211
8.4708	7.9551
8.4570	7.9824
8.4432	8.0266
8.4295	8.0984
8.4158	8.1191
8.4022	8.1120
8.3886	8.1833
8.3750	8.2605
8.3615	8.2805
8.3481	8.3220
8.3347	8.3542
8.3213	8.3894
8.3079	8.4350
8.2946	8.5115
8.2814	8.5632
8.2682	8.5666
8.2550	8.6274
8.2419	8.7163
8.2288	8.7192
8.2158	8.6682
8.2028	8.5849
8.1898	8.4770
8.1769	8.3235
8.1640	8.0937
8.1512	7.8181
8.1384	7.5119
8.1256	7.1391
8.1129	6.7807
8.1002	6.4336
8.0876	6.1067
8.0750	5.8066
8.0624	5.5244
8.0499	5.2561
8.0374	4.9692
8.0250	4.7095
8.0126	4.5498
8.0002	4.3799
7.9879	4.1960
7.9756	3.9863
7.9634	3.7842
7.9512	3.6311
7.9390	3.4753
7.9268	3.2776
7.9147	3.1067
7.9027	2.9739
7.8906	2.8357
7.8786	2.6882
7.8667	2.5957
7.8548	2.5247
7.8429	2.4167
7.8310	2.3054
7.8192	2.2349
7.8075	2.1809
7.7957	2.1311
7.7840	2.1003
7.7723	2.0940
7.7607	2.0593
7.7491	2.0364
7.7375	2.0002
7.7260	1.9443
7.7145	1.9072
7.7031	1.8948
7.6916	1.8415
7.6802	1.8154
7.6689	1.8149
7.6575	1.8035
7.6462	1.7720
7.6350	1.7165
7.6238	1.6516
7.6126	1.6472
7.6014	1.6421
7.5903	1.6008
7.5792	1.5786
7.5681	1.5676
7.5571	1.5544
7.5461	1.5662
7.5351	1.5398
7.5242	1.5478
7.5133	1.5278
7.5024	1.4915
7.4916	1.4927
7.4807	1.4866
7.4700	1.4695
7.4592	1.4731
7.4485	1.4932
7.4378	1.4932
7.4272	1.4770
7.4165	1.4397
7.4059	1.4138
7.3954	1.4353
7.3848	1.4582
7.3743	1.4553
7.3639	1.4561
7.3534	1.4529
7.3430	1.4185
7.3326	1.4172
7.3223	1.4314
7.3119	1.4111
7.3016	1.4211
7.2914	1.4499
7.2811	1.4451
7.2709	1.4456
7.2607	1.4800
7.2506	1.4856
7.2404	1.4834
7.2303	1.4751
7.2203	1.4631
7.2102	1.4851
7.2002	1.5081
7.1902	1.5164
7.1803	1.5027
7.1703	1.5107
7.1604	1.5295
7.1506	1.5505
7.1407	1.5496
7.1309	1.5626
7.1211	1.5998
7.1113	1.6118
7.1016	1.6169
7.0919	1.5884
7.0822	1.5776
7.0725	1.5879
7.0629	1.5896
7.0533	1.5730
7.0437	1.5854
7.0341	1.6333
7.0246	1.6565
7.0151	1.6792
7.0056	1.6836
6.9962	1.6836
6.9867	1.6916
6.9773	1.7388
6.9679	1.7165
6.9586	1.7078
6.9493	1.7544
6.9400	1.7847
6.9307	1.8098
6.9214	1.8523
6.9122	1.8684
6.9030	1.8621
6.8938	1.8784
6.8847	1.9006
6.8755	1.8867
6.8664	1.8516
6.8573	1.8840
6.8483	1.9341
6.8393	1.9556
6.8302	1.9644
6.8213	1.9631
6.8123	1.9924
6.8034	2.0615
6.7944	2.0715
6.7855	2.0437
6.7767	2.0852
6.7678	2.1211
6.7590	2.1411
6.7502	2.1362
6.7414	2.1409
6.7327	2.1733
6.7239	2.1926
6.7152	2.1599
6.7065	2.1438
6.6979	2.1799
6.6892	2.2053
6.6806	2.2153
6.6720	2.2407
6.6634	2.2729
6.6549	2.2859
6.6464	2.2519
6.6378	2.1860
6.6294	2.2170
6.6209	2.2383
6.6124	2.2373
6.6040	2.2649
6.5956	2.2668
6.5872	2.2412
6.5789	2.1804
6.5705	2.1377
6.5622	2.1816
6.5539	2.2241
6.5456	2.2039
6.5374	2.2082
6.5292	2.2136
6.5209	2.2363
6.5128	2.3057
6.5046	2.2942
6.4964	2.2280
6.4883	2.2397
6.4802	2.2810
6.4721	2.3401
6.4640	2.3948
6.4560	2.3997
6.4480	2.3730
6.4399	2.3606
6.4320	2.3660
6.4240	2.3118
6.4160	2.2187
6.4081	2.2449
6.4002	2.3315
6.3923	2.3198
6.3844	2.2932
6.3766	2.2612
6.3687	2.2205
6.3609	2.2331
6.3531	2.1799
6.3454	2.0959
6.3376	2.1099
6.3299	2.1335
6.3221	2.1074
6.3144	2.0642
6.3068	2.0410
6.2991	2.0173
6.2914	1.9739
6.2838	1.9463
6.2762	1.9287
6.2686	1.9260
6.2611	1.9111
6.2535	1.8894
6.2460	1.8706
6.2385	1.8342
6.2310	1.7917
6.2235	1.7634
6.2160	1.7546
6.2086	1.7219
6.2011	1.7036
6.1937	1.7244
6.1863	1.7151
6.1790	1.7043
6.1716	1.6833
6.1643	1.6599
6.1570	1.6909
6.1496	1.7053
6.1424	1.7024
6.1351	1.7214
6.1278	1.7300
6.1206	1.7141
6.1134	1.6863
6.1062	1.7297
6.0990	1.7766
6.0918	1.7871
6.0847	1.7922
6.0776	1.7820
6.0704	1.8000
6.0633	1.8640
6.0563	1.8518
6.0492	1.7942
6.0421	1.8481
6.0351	1.9299
6.0281	1.9600
6.0211	1.9685
6.0141	1.9841
6.0071	2.0281
6.0002	2.0515
5.9932	2.0461
5.9863	2.0745
5.9794	2.1311
5.9725	2.1623
5.9657	2.1787
5.9588	2.2117
5.9520	2.2385
5.9451	2.2629
5.9383	2.2388
5.9315	2.2778
5.9247	2.3977
5.9180	2.4812
5.9112	2.5395
5.9045	2.5826
5.8978	2.5923
5.8911	2.6814
5.8844	2.7353
5.8777	2.8135
5.8711	2.9651
5.8644	3.0207
5.8578	3.1079
5.8512	3.1982
5.8446	3.2832
5.8380	3.3369
5.8314	3.3472
5.8249	3.3721
5.8184	3.4646
5.8118	3.5857
5.8053	3.6687
5.7988	3.7190
5.7923	3.8157
5.7859	3.8701
5.7794	3.9280
5.7730	3.9392
5.7666	3.9077
5.7602	4.0327
5.7538	4.1572
5.7474	4.1941
5.7410	4.2585
5.7347	4.3218
5.7283	4.3830
5.7220	4.4455
5.7157	4.4700
5.7094	4.4993
5.7031	4.5896
5.6969	4.6130
5.6906	4.5859
5.6844	4.5964
5.6782	4.5764
5.6719	4.5745
5.6657	4.5657
5.6596	4.4822
5.6534	4.4072
5.6472	4.3159
5.6411	4.2351
5.6349	4.2612
5.6288	4.2805
5.6227	4.2444
5.6166	4.2143
5.6106	4.2029
5.6045	4.1992
5.5984	4.2051
5.5924	4.2165
5.5864	4.2100
5.5804	4.2073
5.5744	4.2405
5.5684	4.2917
5.5624	4.3254
5.5564	4.3652
5.5505	4.3857
5.5445	4.4407
5.5386	4.5200
5.5327	4.5859
5.5268	4.6641
5.5209	4.7497
5.5151	4.8252
5.5092	4.8953
5.5033	4.9526
5.4975	5.0420
5.4917	5.1435
5.4859	5.2014
5.4801	5.2598
5.4743	5.3376
5.4685	5.3660
5.4628	5.3884
5.4570	5.4678
5.4513	5.5129
5.4455	5.5083
5.4398	5.4985
5.4341	5.4858
5.4284	5.4094
5.4228	5.2827
5.4171	5.2273
5.4114	5.1670
5.4058	5.0517
5.4002	4.9512
5.3945	4.8318
5.3889	4.6933
5.3833	4.5798
5.3778	4.4978
5.3722	4.4267
5.3666	4.3608
5.3611	4.2969
5.3555	4.2605
5.3500	4.2234
5.3445	4.2576
5.3390	4.3008
5.3335	4.3235
5.3280	4.3367
5.3225	4.3542
5.3171	4.4162
5.3116	4.4774
5.3062	4.4863
5.3008	4.5210
5.2954	4.5976
5.2900	4.6477
5.2846	4.7217
5.2792	4.8205
5.2738	4.9197
5.2684	5.0029
5.2631	5.1042
5.2578	5.2244
5.2524	5.3457
5.2471	5.4819
5.2418	5.6357
5.2365	5.7861
5.2312	5.9680
5.2260	6.1199
5.2207	6.2739
5.2154	6.3945
5.2102	6.5124
5.2050	6.6218
5.1998	6.7014
5.1945	6.7812
5.1893	6.8303
5.1842	6.8464
5.1790	6.8689
5.1738	6.9050
5.1686	6.9463
5.1635	6.9756
5.1584	6.9931
5.1532	7.0083
5.1481	7.0027
5.1430	7.0129
5.1379	7.0581
5.1328	7.0808
5.1277	7.1125
5.1227	7.1760
5.1176	7.2007
5.1126	7.2025
5.1075	7.2451
5.1025	7.2761
5.0975	7.2717
5.0925	7.2595
5.0875	7.2392
5.0825	7.2156
5.0775	7.1982
5.0726	7.1899
5.0676	7.1792
5.0627	7.1623
5.0577	7.1787
5.0528	7.2004
5.0479	7.2080
5.0430	7.2138
5.0380	7.2490
5.0332	7.2781
5.0283	7.2710
5.0234	7.2688
5.0185	7.2973
5.0137	7.3254
5.0088	7.3533
5.0040	7.4011
4.9992	7.4521
4.9944	7.5217
4.9896	7.5989
4.9848	7.6892
4.9800	7.8159
4.9752	7.9590
4.9704	8.1321
4.9657	8.3074
4.9609	8.4614
4.9562	8.5952
4.9514	8.7370
4.9467	8.8371
4.9420	8.9287
4.9373	8.9961
4.9326	9.0595
4.9279	9.1792
4.9232	9.3254
4.9186	9.5198
4.9139	9.7295
4.9092	9.9625
4.9046	10.2729
4.9000	10.6230
4.8953	10.9824
4.8907	11.3427
4.8861	11.6987
4.8815	12.0322
4.8769	12.3342
4.8723	12.6296
4.8678	12.9106
4.8632	13.1501
4.8586	13.3752
4.8541	13.6052
4.8495	13.8408
4.8450	14.0327
4.8405	14.1738
4.8360	14.3318
4.8315	14.4882
4.8270	14.6152
4.8225	14.7280
4.8180	14.8315
4.8135	14.9653
4.8090	15.0598
4.8046	15.1303
4.8001	15.2074
4.7957	15.3051
4.7913	15.4045
4.7868	15.5087
4.7824	15.5803
4.7780	15.6359
4.7736	15.7375
4.7692	15.8383
4.7648	15.9160
4.7605	16.0295
4.7561	16.1294
4.7517	16.1972
4.7474	16.2805
4.7431	16.3691
4.7387	16.4223
4.7344	16.4753
4.7301	16.5131
4.7258	16.5229
4.7215	16.5141
4.7172	16.4968
4.7129	16.4448
4.7086	16.3662
4.7043	16.2878
4.7000	16.1811
4.6958	16.0266
4.6915	15.9003
4.6873	15.8129
4.6831	15.7695
4.6788	15.7956
4.6746	15.9284
4.6704	16.0875
4.6662	16.2529
4.6620	16.4528
4.6578	16.6294
4.6536	16.8010
4.6495	16.9843
4.6453	17.1518
4.6411	17.3498
4.6370	17.5417
4.6328	17.7175
4.6287	17.8775
4.6246	18.0356
4.6205	18.1965
4.6163	18.3112
4.6122	18.4184
4.6081	18.5256
4.6040	18.6220
4.6000	18.7290
4.5959	18.8122
4.5918	18.8745
4.5877	18.9309
4.5837	19.0356
4.5796	19.1235
4.5756	19.1518
4.5716	19.2143
4.5675	19.2636
4.5635	19.2858
4.5595	19.2995
4.5555	19.2922
4.5515	19.2900
4.5475	19.2492
4.5435	19.1818
4.5395	19.1154
4.5356	19.0141
4.5316	18.9223
4.5276	18.8193
4.5237	18.6457
4.5197	18.4741
4.5158	18.3313
4.5119	18.1538
4.5080	17.9318
4.5040	17.7700
4.5001	17.6289
4.4962	17.4975
4.4923	17.4135
4.4884	17.3852
4.4846	17.3671
4.4807	17.3461
4.4768	17.3493
4.4730	17.3286
4.4691	17.3457
4.4652	17.4140
4.4614	17.5092
4.4576	17.6494
4.4537	17.8300
4.4499	17.9748
4.4461	18.1115
4.4423	18.2348
4.4385	18.3454
4.4347	18.4501
4.4309	18.5456
4.4271	18.6542
4.4233	18.8010
4.4196	18.9379
4.4158	19.0644
4.4120	19.2055
4.4083	19.3771
4.4045	19.5397
4.4008	19.7163
4.3971	19.8769
4.3934	20.0388
4.3896	20.2363
4.3859	20.4421
4.3822	20.6210
4.3785	20.7926
4.3748	21.0070
4.3711	21.2089
4.3674	21.3726
4.3638	21.5461
4.3601	21.7141
4.3564	21.8779
4.3528	22.0468
4.3491	22.1743
4.3455	22.3166
4.3418	22.4282
4.3382	22.5104
4.3346	22.6086
4.3310	22.6721
4.3273	22.7402
4.3237	22.8049
4.3201	22.8217
4.3165	22.8329
4.3129	22.8281
4.3094	22.7978
4.3058	22.7704
4.3022	22.7448
4.2986	22.7114
4.2951	22.6530
4.2915	22.6379
4.2880	22.6269
4.2844	22.5585
4.2809	22.2914
4.2774	21.9143
4.2738	21.8832
4.2703	22.2460
4.2668	22.6674
4.2633	23.0246
4.2598	23.3530
4.2563	23.5881
4.2528	23.6652
4.2493	23.6542
4.2458	23.6275
4.2424	23.5773
4.2389	23.5563
4.2354	23.5971
4.2320	23.6462
4.2285	23.6992
4.2251	23.8002
4.2216	23.9376
4.2182	24.0424
4.2148	24.1279
4.2113	24.2885
4.2079	24.4057
4.2045	24.4399
4.2011	24.4943
4.1977	24.5451
4.1943	24.5710
4.1909	24.6330
4.1875	24.7033
4.1841	24.7476
4.1808	24.8305
4.1774	24.8959
4.1740	24.9741
4.1707	25.0388
4.1673	25.0854
4.1640	25.1367
4.1606	25.2023
4.1573	25.2617
4.1540	25.3124
4.1506	25.3408
4.1473	25.3647
4.1440	25.4228
4.1407	25.4889
4.1374	25.5510
4.1341	25.6103
4.1308	25.6354
4.1275	25.6623
4.1242	25.7165
4.1209	25.7944
4.1177	25.8698
4.1144	25.9052
4.1111	25.9763
4.1079	26.0402
4.1046	26.0768
4.1014	26.1198
4.0981	26.1567
4.0949	26.2045
4.0917	26.2497
4.0884	26.3393
4.0852	26.3837
4.0820	26.4023
4.0788	26.3867
4.0756	26.4040
4.0724	26.4553
4.0692	26.4645
4.0660	26.4774
4.0628	26.4933
4.0596	26.4682
4.0565	26.4755
4.0533	26.4887
4.0501	26.4814
4.0470	26.4489
4.0438	26.4494
4.0406	26.4692
4.0375	26.4311
4.0344	26.3920
4.0312	26.3754
4.0281	26.3659
4.0250	26.3217
4.0218	26.3144
4.0187	26.3051
4.0156	26.3078
4.0125	26.3051
4.0094	26.2874
4.0063	26.2939
4.0032	26.2802
4.0001	26.2458
3.9970	26.2597
3.9940	26.2829
3.9909	26.2802
3.9878	26.3058
3.9847	26.2866
3.9817	26.2573
3.9786	26.2707
3.9756	26.2874
3.9725	26.3068
3.9695	26.3178
3.9665	26.3134
3.9634	26.3134
3.9604	26.3124
3.9574	26.3326
3.9544	26.3495
3.9513	26.3300
3.9483	26.3105
3.9453	26.3430
3.9423	26.3726
3.9393	26.3688
3.9363	26.3412
3.9333	26.3207
3.9304	26.3254
3.9274	26.3115
3.9244	26.3051
3.9214	26.2700
3.9185	26.1843
3.9155	26.1603
3.9126	26.1723
3.9096	26.0998
3.9067	26.0651
3.9037	26.0422
3.9008	25.9882
3.8979	25.9553
3.8949	25.9033
3.8920	25.8168
3.8891	25.7590
3.8862	25.7284
3.8833	25.6533
3.8804	25.5634
3.8775	25.5231
3.8746	25.4997
3.8717	25.4235
3.8688	25.3754
3.8659	25.3605
3.8630	25.3051
3.8601	25.2465
3.8573	25.2040
3.8544	25.1572
3.8515	25.1093
3.8487	25.0654
3.8458	25.0583
3.8430	25.0125
3.8401	24.9531
3.8373	24.9203
3.8344	24.8975
3.8316	24.8871
3.8288	24.8217
3.8259	24.7746
3.8231	24.7441
3.8203	24.6876
3.8175	24.6557
3.8147	24.5934
3.8119	24.5771
3.8091	24.5251
3.8063	24.4425
3.8035	24.3954
3.8007	24.3798
3.7979	24.3159
3.7951	24.2525
3.7924	24.1830
3.7896	24.1161
3.7868	24.0483
3.7841	23.9682
3.7813	23.8932
3.7785	23.8212
3.7758	23.7717
3.7730	23.6953
3.7703	23.6037
3.7676	23.5466
3.7648	23.4863
3.7621	23.4169
3.7594	23.3251
3.7566	23.2441
3.7539	23.1569
3.7512	23.0519
3.7485	22.9921
3.7458	22.9809
3.7431	22.9069
3.7404	22.8049
3.7377	22.7663
3.7350	22.7407
3.7323	22.6769
3.7296	22.6308
3.7269	22.5842
3.7242	22.5141
3.7216	22.4438
3.7189	22.3881
3.7162	22.3215
3.7136	22.2368
3.7109	22.2187
3.7083	22.2094
3.7056	22.1564
3.7030	22.1198
3.7003	22.0826
3.6977	22.0463
3.6950	22.0100
3.6924	21.9504
3.6898	21.8832
3.6872	21.8471
3.6845	21.8019
3.6819	21.7490
3.6793	21.6950
3.6767	21.6447
3.6741	21.5742
3.6715	21.5104
3.6689	21.4689
3.6663	21.4050
3.6637	21.3518
3.6611	21.3098
3.6585	21.2363
3.6560	21.1479
3.6534	21.0626
3.6508	21.0092
3.6482	20.9555
3.6457	20.8923
3.6431	20.8264
3.6406	20.7590
3.6380	20.6855
3.6355	20.6103
3.6329	20.5573
3.6304	20.4919
3.6278	20.4233
3.6253	20.3332
3.6227	20.2425
3.6202	20.1660
3.6177	20.1484
3.6152	20.0910
3.6127	19.9885
3.6101	19.8818
3.6076	19.8371
3.6051	19.7653
3.6026	19.6450
3.6001	19.5349
3.5976	19.4733
3.5951	19.4309
3.5926	19.3586
3.5901	19.2575
3.5876	19.1948
3.5852	19.1262
3.5827	19.0588
3.5802	18.9956
3.5777	18.9003
3.5753	18.8168
3.5728	18.7172
3.5704	18.6477
3.5679	18.6110
3.5654	18.5332
3.5630	18.4228
3.5605	18.3313
3.5581	18.2517
3.5557	18.1779
3.5532	18.0551
3.5508	17.9406
3.5484	17.8759
3.5459	17.8068
3.5435	17.7270
3.5411	17.6103
3.5387	17.4782
3.5363	17.4018
3.5338	17.3127
3.5314	17.1874
3.5290	17.0759
3.5266	16.9725
3.5242	16.8588
3.5218	16.7074
3.5195	16.5241
3.5171	16.3933
3.5147	16.1980
3.5123	15.9301
3.5099	15.7177
3.5075	15.5693
3.5052	15.5000
3.5028	15.4712
3.5004	15.4511
3.4981	15.4165
3.4957	15.3947
3.4934	15.3752
3.4910	15.3120
3.4887	15.2270
3.4863	15.1818
3.4840	15.1218
3.4816	15.0274
3.4793	14.9431
3.4770	14.8403
3.4746	14.7534
3.4723	14.7165
3.4700	14.6540
3.4677	14.5627
3.4653	14.5131
3.4630	14.4629
3.4607	14.3884
3.4584	14.2927
3.4561	14.1894
3.4538	14.0735
3.4515	13.9824
3.4492	13.9038
3.4469	13.8144
3.4446	13.7417
3.4423	13.6469
3.4400	13.5332
3.4378	13.4445
3.4355	13.3261
3.4332	13.1938
3.4309	13.0151
3.4287	12.8344
3.4264	12.6596
3.4241	12.5600
3.4219	12.5075
3.4196	12.4199
3.4174	12.3603
3.4151	12.3105
3.4129	12.3134
3.4106	12.2988
3.4084	12.2622
3.4061	12.2321
3.4039	12.2339
3.4017	12.2197
3.3994	12.1899
3.3972	12.1792
3.3950	12.2058
3.3928	12.2031
3.3906	12.1648
3.3883	12.1418
3.3861	12.0715
3.3839	12.0207
3.3817	12.0346
3.3795	11.9983
3.3773	11.9463
3.3751	11.8977
3.3729	11.8506
3.3707	11.8718
3.3685	11.8718
3.3663	11.8056
3.3641	11.7758
3.3620	11.7500
3.3598	11.7138
3.3576	11.6838
3.3554	11.6609
3.3533	11.6394
3.3511	11.6024
3.3489	11.5664
3.3468	11.5337
3.3446	11.5134
3.3425	11.4533
3.3403	11.4131
3.3382	11.3845
3.3360	11.3174
3.3339	11.2563
3.3317	11.2136
3.3296	11.1482
3.3274	11.0656
3.3253	11.0009
3.3232	10.9455
3.3210	10.8838
3.3189	10.8303
3.3168	10.7712
3.3147	10.7168
3.3126	10.6599
3.3104	10.5864
3.3083	10.5224
3.3062	10.4487
3.3041	10.3598
3.3020	10.3152
3.2999	10.2829
3.2978	10.1980
3.2957	10.1267
3.2936	10.0737
3.2915	9.9819
3.2894	9.9023
3.2874	9.8530
3.2853	9.7837
3.2832	9.6994
3.2811	9.6179
3.2790	9.5674
3.2770	9.5088
3.2749	9.4643
3.2728	9.3825
3.2708	9.2988
3.2687	9.2473
3.2666	9.1887
3.2646	9.1260
3.2625	9.0681
3.2605	9.0095
3.2584	8.9536
3.2564	8.9009
3.2543	8.8308
3.2523	8.7588
3.2503	8.7107
3.2482	8.6665
3.2462	8.6089
3.2442	8.5698
3.2421	8.5166
3.2401	8.4699
3.2381	8.4062
3.2361	8.3139
3.2340	8.2673
3.2320	8.2422
3.2300	8.1977
3.2280	8.1396
3.2260	8.0915
3.2240	8.0383
3.2220	7.9714
3.2200	7.9255
3.2180	7.9025
3.2160	7.8296
3.2140	7.7434
3.2120	7.7036
3.2100	7.6929
3.2080	7.6345
3.2060	7.5635
3.2040	7.5544
3.2021	7.5437
3.2001	7.4700
3.1981	7.4040
3.1961	7.3359
3.1942	7.2875
3.1922	7.2392
3.1902	7.2151
3.1883	7.1846
3.1863	7.1350
3.1844	7.0775
3.1824	7.0029
3.1805	6.9800
3.1785	6.9441
3.1766	6.8989
3.1746	6.8625
3.1727	6.8303
3.1707	6.7881
3.1688	6.7270
3.1669	6.6609
3.1649	6.6455
3.1630	6.6098
3.1611	6.5434
3.1591	6.4660
3.1572	6.4621
3.1553	6.4343
3.1534	6.3472
3.1515	6.3227
3.1495	6.3149
3.1476	6.2727
3.1457	6.1985
3.1438	6.1650
3.1419	6.1855
3.1400	6.1487
3.1381	6.0288
3.1362	5.9739
3.1343	5.9917
3.1324	5.9756
3.1305	5.9172
3.1286	5.8769
3.1268	5.8762
3.1249	5.8708
3.1230	5.8484
3.1211	5.8376
3.1192	5.8069
3.1174	5.7468
3.1155	5.6907
3.1136	5.6450
3.1117	5.6428
3.1099	5.6250
3.1080	5.6130
3.1061	5.5642
3.1043	5.5173
3.1024	5.5012
3.1006	5.5071
3.0987	5.4890
3.0969	5.4392
3.0950	5.4214
3.0932	5.4197
3.0913	5.3723
3.0895	5.3379
3.0876	5.3711
3.0858	5.3606
3.0840	5.3105
3.0821	5.2771
3.0803	5.2558
3.0785	5.2522
3.0766	5.2488
3.0748	5.2436
3.0730	5.2405
3.0712	5.2165
3.0694	5.1743
3.0675	5.1863
3.0657	5.1789
3.0639	5.1540
3.0621	5.1391
3.0603	5.1389
3.0585	5.1323
3.0567	5.1052
3.0549	5.0766
3.0531	5.0691
3.0513	5.0832
3.0495	5.1045
3.0477	5.0747
3.0459	5.0774
3.0441	5.0686
3.0423	5.0246
3.0406	5.0212
3.0388	5.0571
3.0370	5.0354
3.0352	4.9966
3.0334	4.9912
3.0317	4.9778
3.0299	4.9631
3.0281	4.9243
3.0264	4.9241
3.0246	4.9172
3.0228	4.8542
3.0211	4.8384
3.0193	4.8540
3.0176	4.8711
3.0158	4.8423
3.0140	4.8137
3.0123	4.8232
3.0105	4.8008
3.0088	4.8157
3.0070	4.8298
3.0053	4.7771
3.0036	4.7734
3.0018	4.7615
3.0001	4.7358
2.9984	4.7480
2.9966	4.7419
2.9949	4.7434
2.9932	4.7803
2.9914	4.7043
2.9897	4.6423
2.9880	4.6350
2.9863	4.6616
2.9845	4.6660
2.9828	4.6741
2.9811	4.6216
2.9794	4.5515
2.9777	4.5486
2.9760	4.6013
2.9743	4.5708
2.9726	4.5127
2.9709	4.4846
2.9692	4.4966
2.9675	4.4888
2.9658	4.4678
2.9641	4.4499
2.9624	4.4766
2.9607	4.4751
2.9590	4.4287
2.9573	4.4473
2.9556	4.5220
2.9539	4.4939
2.9523	4.5098
2.9506	4.5168
2.9489	4.4343
2.9472	4.4111
2.9455	4.4126
2.9439	4.4250
2.9422	4.4753
2.9405	4.4997
2.9389	4.4824
2.9372	4.4502
2.9355	4.4426
2.9339	4.4358
2.9322	4.4380
2.9306	4.4485
2.9289	4.4609
2.9272	4.4526
2.9256	4.4385
2.9239	4.4353
2.9223	4.3855
2.9207	4.4204
2.9190	4.4643
2.9174	4.4604
2.9157	4.4394
2.9141	4.4304
2.9124	4.5007
2.9108	4.5215
2.9092	4.4780
2.9075	4.5190
2.9059	4.5452
2.9043	4.5420
2.9027	4.5608
2.9010	4.5683
2.8994	4.5227
2.8978	4.5110
2.8962	4.5476
2.8946	4.5535
2.8929	4.5986
2.8913	4.5788
2.8897	4.5244
2.8881	4.5420
2.8865	4.5613
2.8849	4.5808
2.8833	4.5964
2.8817	4.5718
2.8801	4.5915
2.8785	4.6509
2.8769	4.6863
2.8753	4.6782
2.8737	4.6953
2.8721	4.6933
2.8705	4.7012
2.8689	4.7092
2.8673	4.6919
2.8658	4.6914
2.8642	4.7583
2.8626	4.7700
2.8610	4.7810
2.8594	4.7722
2.8579	4.7703
2.8563	4.7778
2.8547	4.7742
2.8531	4.7807
2.8516	4.8271
2.8500	4.8020
2.8484	4.7969
2.8469	4.8245
2.8453	4.8276
2.8437	4.8524
2.8422	4.8396
2.8406	4.7837
2.8391	4.7585
2.8375	4.7688
2.8360	4.7466
2.8344	4.7229
2.8329	4.7273
2.8313	4.7754
2.8298	4.7993
2.8282	4.7659
2.8267	4.7710
2.8252	4.7851
2.8236	4.7466
2.8221	4.7056
2.8205	4.6589
2.8190	4.6643
2.8175	4.6912
2.8159	4.6980
2.8144	4.6807
2.8129	4.6470
2.8114	4.6531
2.8098	4.6194
2.8083	4.5945
2.8068	4.5757
2.8053	4.5342
2.8038	4.5281
2.8022	4.4971
2.8007	4.4912
2.7992	4.4919
2.7977	4.4780
2.7962	4.4722
2.7947	4.4370
2.7932	4.4189
2.7917	4.3899
2.7902	4.3791
2.7887	4.3296
2.7872	4.2808
2.7857	4.2314
2.7842	4.2278
2.7827	4.2026
2.7812	4.1084
2.7797	4.0776
2.7782	4.0820
2.7767	4.0332
2.7752	4.0002
2.7738	3.9902
2.7723	3.9177
2.7708	3.8977
2.7693	3.8838
2.7678	3.7888
2.7664	3.6970
2.7649	3.5952
2.7634	3.4519
2.7619	3.3369
2.7605	3.3428
2.7590	3.4043
2.7575	3.4587
2.7561	3.5012
2.7546	3.5835
2.7531	3.6811
2.7517	3.7766
2.7502	3.8728
2.7488	3.9993
2.7473	4.0705
2.7458	4.1474
2.7444	4.1946
2.7429	4.2082
2.7415	4.2131
2.7400	4.2724
2.7386	4.3484
2.7371	4.4809
2.7357	4.5793
2.7343	4.6606
2.7328	4.8218
2.7314	5.0032
2.7299	5.1284
2.7285	5.3022
2.7271	5.4441
2.7256	5.5276
2.7242	5.6124
2.7228	5.8445
2.7213	6.0098
2.7199	6.1990
2.7185	6.5339
2.7171	6.8196
2.7156	7.0451
2.7142	7.1584
2.7128	7.1015
2.7114	6.8806
2.7100	6.7236
2.7085	6.6531
2.7071	6.4910
2.7057	6.2912
2.7043	6.2720
2.7029	6.4577
2.7015	6.8122
2.7001	7.4470
2.6987	8.1916
2.6973	8.9765
2.6959	9.8323
2.6945	10.7973
2.6931	11.9968
2.6917	13.5236
2.6903	15.0002
2.6889	16.3530
2.6875	17.6647
2.6861	18.8916
2.6847	20.0065
2.6833	21.0559
2.6819	22.1113
2.6805	22.9340
2.6791	23.3989
2.6778	23.9655
2.6764	24.4487
2.6750	25.3061
2.6736	26.1852
2.6722	26.6259
2.6709	26.3578
2.6695	26.8117
2.6681	27.6876
2.6667	27.7587
2.6654	28.0204
2.6640	28.7433
2.6626	29.5990
2.6613	29.8875
2.6599	30.0846
2.6585	30.4440
2.6572	30.8444
2.6558	30.9008
2.6545	31.1396
2.6531	31.3526
2.6517	31.5915
2.6504	32.0082
2.6490	32.2089
2.6477	32.3007
2.6463	32.3756
2.6450	32.4576
2.6436	32.7040
2.6423	32.8777
2.6409	33.0644
2.6396	33.2287
2.6382	33.3771
2.6369	33.5263
2.6356	33.5971
2.6342	33.5192
2.6329	33.6657
2.6315	33.5395
2.6302	33.2052
2.6289	33.7260
2.6275	33.9247
2.6262	33.7734
2.6249	34.2514
2.6236	34.5585
2.6222	34.5429
2.6209	34.0104
2.6196	33.9757
2.6183	34.3673
2.6169	34.1601
2.6156	34.4350
2.6143	34.9455
2.6130	35.0265
2.6117	35.0649
2.6103	35.0121
2.6090	34.9960
2.6077	34.9823
2.6064	34.6083
2.6051	34.4023
2.6038	34.9247
2.6025	35.2404
2.6012	35.3483
2.5999	35.5424
2.5986	35.6524
2.5973	35.3918
2.5960	34.5414
2.5947	33.8007
2.5934	34.5683
2.5921	35.6088
2.5908	35.8624
2.5895	35.8219
2.5882	35.6801
2.5869	35.5724
2.5856	35.7543
2.5843	35.4762
2.5830	35.4901
2.5817	35.8991
2.5805	35.9457
2.5792	36.1303
2.5779	36.0631
2.5766	35.9733
2.5753	36.1584
2.5741	36.0038
2.5728	35.9291
2.5715	36.3277
2.5702	36.1979
2.5690	36.1913
2.5677	36.5070
2.5664	36.6161
2.5651	36.4645
2.5639	36.2538
2.5626	36.1356
2.5613	36.1317
2.5601	36.4313
2.5588	36.8058
2.5575	36.9391
2.5563	36.9481
2.5550	36.9599
2.5538	36.8820
2.5525	36.8043
2.5513	36.8495
2.5500	36.9313
2.5487	36.9427
2.5475	36.8795
2.5462	36.9845
2.5450	37.0248
2.5437	36.9196
2.5425	36.9298
2.5413	37.0846
2.5400	37.1930
2.5388	37.1879
2.5375	37.1251
2.5363	37.1002
2.5350	37.1369
2.5338	37.2101
2.5326	37.1957
2.5313	37.2023
2.5301	37.2531
2.5289	37.3437
2.5276	37.3346
2.5264	37.3751
2.5252	37.4066
2.5239	37.3383
2.5227	37.3673
2.5215	37.4552
2.5202	37.4579
2.5190	37.4474
2.5178	37.4579
2.5166	37.4579
2.5154	37.4921
2.5141	37.5474
2.5129	37.5634
2.5117	37.5777
2.5105	37.5897
2.5093	37.5977
2.5081	37.6386
2.5068	37.6757
2.5056	37.6798
2.5044	37.6875
2.5032	37.7086
2.5020	37.7924
2.5008	37.8056
2.4996	37.8441
2.4984	37.8761
2.4972	37.8310
2.4960	37.8229
2.4948	37.9000
2.4936	37.9508
2.4924	37.9682
2.4912	37.9987
2.4900	38.0294
2.4888	38.0829
2.4876	38.1486
2.4864	38.1996
2.4852	38.1967
2.4840	38.1874
2.4828	38.2372
2.4816	38.3070
2.4805	38.3475
2.4793	38.3541
2.4781	38.4096
2.4769	38.4811
2.4757	38.5731
2.4745	38.6247
2.4734	38.6762
2.4722	38.7633
2.4710	38.8192
2.4698	38.7755
2.4686	38.7702
2.4675	38.8302
2.4663	38.8820
2.4651	38.9435
2.4640	38.9601
2.4628	39.0119
2.4616	39.1066
2.4604	39.0985
2.4593	39.1300
2.4581	39.1879
2.4569	39.2855
2.4558	39.2899
2.4546	39.2831
2.4535	39.3588
2.4523	39.4627
2.4511	39.4586
2.4500	39.4476
2.4488	39.4850
2.4477	39.5336
2.4465	39.5893
2.4454	39.6698
2.4442	39.7497
2.4431	39.7985
2.4419	39.8195
2.4408	39.8725
2.4396	39.9398
2.4385	39.9679
2.4373	40.0155
2.4362	40.0707
2.4350	40.0917
2.4339	40.1454
2.4327	40.2880
2.4316	40.3617
2.4305	40.3546
2.4293	40.3717
2.4282	40.4723
2.4270	40.6134
2.4259	40.7348
2.4248	40.7179
2.4236	40.6991
2.4225	40.8039
2.4214	40.9157
2.4202	40.9789
2.4191	40.9948
2.4180	40.9989
2.4169	40.9833
2.4157	41.0194
2.4146	41.0697
2.4135	41.1740
2.4124	41.2243
2.4112	41.2404
2.4101	41.3058
2.4090	41.3725
2.4079	41.4408
2.4068	41.4845
2.4056	41.4830
2.4045	41.5458
2.4034	41.5897
2.4023	41.5836
2.4012	41.5487
2.4001	41.5253
2.3990	41.5458
2.3979	41.5473
2.3967	41.5297
2.3956	41.6188
2.3945	41.6203
2.3934	41.6012
2.3923	41.6537
2.3912	41.7476
2.3901	41.7727
2.3890	41.7199
2.3879	41.6903
2.3868	41.7124
2.3857	41.7360
2.3846	41.7360
2.3835	41.7184
2.3824	41.7521
2.3813	41.7858
2.3802	41.8388
2.3791	41.9801
2.3781	42.0451
2.3770	42.0082
2.3759	42.0111
2.3748	42.0258
2.3737	42.0863
2.3726	42.1559
2.3715	42.2435
2.3704	42.3104
2.3694	42.3074
2.3683	42.3700
2.3672	42.4430
2.3661	42.4667
2.3650	42.5084
2.3640	42.5385
2.3629	42.5414
2.3618	42.5309
2.3607	42.5624
2.3597	42.5577
2.3586	42.6041
2.3575	42.6281
2.3564	42.6715
2.3554	42.7016
2.3543	42.6986
2.3532	42.7272
2.3522	42.7916
2.3511	42.8021
2.3500	42.8158
2.3490	42.8805
2.3479	42.9137
2.3468	42.9213
2.3458	42.9708
2.3447	43.0270
2.3436	43.0634
2.3426	43.0890
2.3415	43.1312
2.3405	43.1920
2.3394	43.2496
2.3384	43.2802
2.3373	43.3607
2.3363	43.4247
2.3352	43.3942
2.3342	43.3546
2.3331	43.4113
2.3321	43.4157
2.3310	43.4157
2.3300	43.4874
2.3289	43.5592
2.3279	43.5792
2.3268	43.5714
2.3258	43.6083
2.3247	43.6036
2.3237	43.6390
2.3226	43.6925
2.3216	43.7096
2.3206	43.7909
2.3195	43.7802
2.3185	43.7325
2.3175	43.7433
2.3164	43.7355
2.3154	43.6605
2.3144	43.6635
2.3133	43.6849
2.3123	43.7311
2.3113	43.7111
2.3102	43.6867
2.3092	43.7001
2.3082	43.7880
2.3071	43.7987
2.3061	43.7018
2.3051	43.7294
2.3041	43.8217
2.3030	43.8065
2.3020	43.8002
2.3010	43.8849
2.3000	43.9452
2.2990	43.9049
2.2979	43.8356
2.2969	43.8556
2.2959	43.9342
2.2949	44.0087
2.2939	43.9945
2.2929	43.9435
2.2918	44.0333
2.2908	44.1354
2.2898	44.1107
2.2888	44.0890
2.2878	44.1371
2.2868	44.1803
2.2858	44.1664
2.2848	44.1867
2.2838	44.2674
2.2828	44.2876
2.2818	44.3251
2.2808	44.3439
2.2798	44.3639
2.2787	44.4669
2.2777	44.5404
2.2767	44.5045
2.2757	44.4325
2.2747	44.4857
2.2738	44.5138
2.2728	44.4559
2.2718	44.4952
2.2708	44.5656
2.2698	44.4918
2.2688	44.4733
2.2678	44.5748
2.2668	44.5639
2.2658	44.6032
2.2648	44.6234
2.2638	44.5389
2.2628	44.4999
2.2618	44.5153
2.2609	44.5453
2.2599	44.5325
2.2589	44.4843
2.2579	44.4935
2.2569	44.5263
2.2559	44.5233
2.2550	44.3688
2.2540	44.3922
2.2530	44.5014
2.2520	44.4249
2.2510	44.3624
2.2501	44.4374
2.2491	44.4374
2.2481	44.3890
2.2471	44.3219
2.2462	44.3297
2.2452	44.3219
2.2442	44.2472
2.2433	44.2269
2.2423	44.2860
2.2413	44.2972
2.2403	44.2333
2.2394	44.1726
2.2384	44.2037
2.2374	44.2582
2.2365	44.3190
2.2355	44.2860
2.2345	44.2037
2.2336	44.1788
2.2326	44.2394
2.2317	44.2394
2.2307	44.2145
2.2297	44.2376
2.2288	44.1945
2.2278	44.0997
2.2269	44.0609
2.2259	44.0641
2.2250	44.0797
2.2240	44.0087
2.2231	43.9899
2.2221	43.9342
2.2211	43.7802
2.2202	43.7648
2.2192	43.9066
2.2183	43.7831
2.2173	43.6251
2.2164	43.5287
2.2155	43.4537
2.2145	43.3136
2.2136	43.1874
2.2126	43.0997
2.2117	42.9226
2.2107	42.7811
2.2098	42.6193
2.2088	42.4442
2.2079	42.4772
2.2070	42.5874
2.2060	42.6686
2.2051	42.7467
2.2041	42.8685
2.2032	43.0165
2.2023	43.1615
2.2013	43.2391
2.2004	43.2816
2.1995	43.3302
2.1985	43.4310
2.1976	43.5255
2.1967	43.5914
2.1957	43.6344
2.1948	43.6268
2.1939	43.6466
2.1930	43.7665
2.1920	43.8109
2.1911	43.8388
2.1902	43.9326
2.1893	44.0070
2.1883	44.0487
2.1874	44.0690
2.1865	44.0641
2.1856	44.1603
2.1846	44.2316
2.1837	44.2689
2.1828	44.3109
2.1819	44.3563
2.1810	44.4484
2.1800	44.5076
2.1791	44.4952
2.1782	44.5280
2.1773	44.6815
2.1764	44.8277
2.1755	44.7821
2.1746	44.8107
2.1736	44.9161
2.1727	45.0125
2.1718	44.9349
2.1709	44.9098
2.1700	44.9208
2.1691	44.9730
2.1682	44.9618
2.1673	44.9762
2.1664	45.1232
2.1655	45.2233
2.1646	45.2438
2.1637	45.2676
2.1628	45.2885
2.1619	45.2836
2.1610	45.2885
2.1601	45.4335
2.1592	45.4989
2.1583	45.4559
2.1574	45.4927
2.1565	45.5917
2.1556	45.6141
2.1547	45.6622
2.1538	45.7540
2.1529	45.8151
2.1520	45.7972
2.1511	45.8102
2.1502	45.8663
2.1493	45.9408
2.1484	45.9457
2.1475	45.9440
2.1466	45.9503
2.1458	46.0360
2.1449	46.0619
2.1440	46.0734
2.1431	46.1608
2.1422	46.2306
2.1413	46.2470
2.1404	46.2062
2.1396	46.1412
2.1387	46.1591
2.1378	46.2030
2.1369	46.1915
2.1360	46.2648
2.1352	46.2794
2.1343	46.2208
2.1334	46.2124
2.1325	46.2678
2.1316	46.3119
2.1308	46.1769
2.1299	46.2289
2.1290	46.3346
2.1281	46.3283
2.1273	46.3055
2.1264	46.2924
2.1255	46.3231
2.1247	46.4130
2.1238	46.3915
2.1229	46.2743
2.1220	46.2404
2.1212	46.3136
2.1203	46.3346
2.1194	46.3510
2.1186	46.4210
2.1177	46.3151
2.1168	46.2240
2.1160	46.2516
2.1151	46.3771
2.1143	46.4210
2.1134	46.2306
2.1125	46.2124
2.1117	46.3168
2.1108	46.2631
2.1100	46.2435
2.1091	46.3055
2.1082	46.3151
2.1074	46.2907
2.1065	46.2582
2.1057	46.2596
2.1048	46.2987
2.1040	46.4454
2.1031	46.4342
2.1023	46.2614
2.1014	46.2907
2.1005	46.4064
2.0997	46.4161
2.0988	46.3185
2.0980	46.2567
2.0971	46.3185
2.0963	46.3492
2.0955	46.2452
2.0946	46.1395
2.0938	46.2013
2.0929	46.2582
2.0921	46.3231
2.0912	46.2631
2.0904	46.2614
2.0895	46.3283
2.0887	46.3312
2.0879	46.2892
2.0870	46.2582
2.0862	46.2323
2.0853	46.2955
2.0845	46.2892
2.0837	46.2596
2.0828	46.2516
2.0820	46.3119
2.0812	46.3168
2.0803	46.2892
2.0795	46.3055
2.0760	46.4643
2.0720	46.2150
2.0680	46.3226
2.0640	46.1230
2.0600	45.7592
2.0560	45.7533
2.0520	45.9235
2.0480	45.7944
2.0440	46.0891
2.0400	45.7415
2.0360	45.7886
2.0320	45.2182
2.0280	45.1815
2.0240	44.9739
2.0200	44.7189
2.0160	44.7037
2.0120	44.9056
2.0080	44.9689
2.0040	45.0089
2.0000	44.4511
1.9960	44.3061
1.9920	43.9236
1.9880	43.2361
1.9840	42.9093
1.9800	42.6035
1.9760	42.0014
1.9720	41.6262
1.9680	41.2871
1.9640	40.7729
1.9600	40.5454
1.9560	40.1343
1.9520	39.8900
1.9480	39.5420
1.9440	39.2750
1.9400	39.0497
1.9360	38.7211
1.9320	38.2436
1.9280	37.9712
1.9240	37.5708
1.9200	37.1913
1.9160	37.0684
1.9120	36.6204
1.9080	36.7462
1.9040	37.3848
1.9000	37.9915
1.8960	38.8900
1.8920	39.9759
1.8880	41.2135
1.8840	42.6931
1.8800	43.9284
1.8760	44.8729
1.8720	45.7441
1.8680	46.5806
1.8640	47.2484
1.8600	47.6574
1.8560	47.9721
1.8520	48.2534
1.8480	48.5617
1.8440	48.3676
1.8400	48.5339
1.8360	48.6911
1.8320	48.5339
1.8280	48.6136
1.8240	48.7363
1.8200	48.3755
1.8160	48.2481
1.8120	48.4532
1.8080	48.2199
1.8040	48.4522
1.8000	49.1065
1.7960	49.1326
1.7920	48.6590
1.7880	48.5300
1.7840	48.8215
1.7800	49.0034
1.7760	48.8914
1.7720	48.7873
1.7680	49.0563
1.7640	48.7959
1.7600	48.8484
1.7560	48.8746
1.7520	48.9002
1.7480	49.0295
1.7440	48.5276
1.7400	48.8393
1.7360	49.1350
1.7320	48.7603
1.7280	49.0066
1.7240	48.6016
1.7200	48.4195
1.7160	48.3968
1.7120	48.3990
1.7080	48.1675
1.7040	48.4324
1.7000	48.4319
1.6960	47.8275
1.6920	47.9822
1.6880	47.9293
1.6840	47.5666
1.6800	47.8081
1.6760	47.5104
1.6720	47.3272
1.6680	47.2987
1.6640	47.1474
1.6600	47.1474
1.6560	47.3493
1.6520	47.5301
1.6480	47.4763
1.6440	47.1403
1.6400	47.4509
1.6360	47.5301
1.6320	47.5528
1.6280	47.4449
1.6240	47.7322
1.6200	47.3852
1.6160	47.4193
1.6120	47.4449
1.6080	47.4162
1.6040	47.5328
1.6000	47.3875
1.5960	47.5415
1.5920	47.4901
1.5880	46.9108
1.5840	46.5631
1.5800	46.4183
1.5760	46.2437
1.5720	46.4234
1.5680	46.6036
1.5640	46.5438
1.5600	46.6193
1.5560	46.2523
1.5520	46.0664
1.5480	46.0167
1.5440	46.1718
1.5400	46.4029
1.5360	46.0603
1.5320	45.9547
1.5280	45.8922
1.5240	45.8302
1.5200	45.9667
1.5160	45.6942
1.5120	46.1411
1.5080	45.6934
1.5040	45.3125
1.5000	45.0123
1.4960	44.6080
1.4920	44.5272
1.4880	44.7079
1.4840	44.5214
1.4800	44.2363
1.4760	44.1160
1.4720	44.0983
1.4680	44.1060
1.4640	44.0959
1.4600	43.6575
1.4560	43.4216
1.4520	43.5878
1.4480	43.8272
1.4440	43.3204
1.4400	43.0176
1.4360	42.9337
1.4320	42.6162
1.4280	42.3919
1.4240	42.3919
1.4200	42.5536
1.4160	42.2098
1.4120	41.9419
1.4080	41.8500
1.4040	41.7986
1.4000	41.6113
1.3960	42.0671
1.3920	42.3921
1.3880	43.1143
1.3840	43.4316
1.3800	43.7658
1.3760	43.6955
1.3720	43.9911
1.3680	44.0263
1.3640	44.1021
1.3600	44.0839
1.3560	44.3666
1.3520	44.3098
1.3480	44.3789
1.3440	44.5537
1.3400	44.4883
1.3360	44.4099
1.3320	44.3998
1.3280	44.2007
1.3240	44.1012
1.3200	44.2679
1.3160	43.8892
1.3120	44.1281
1.3080	44.2007
1.3040	44.1497
1.3000	44.1983
1.2960	44.5355
1.2920	44.2503
1.2880	44.1311
1.2840	44.2076
1.2800	44.1008
1.2760	43.7593
1.2720	43.6617
1.2680	43.3677
1.2640	43.2439
1.2600	43.1819
1.2560	42.9844
1.2520	42.9236
1.2480	42.8251
1.2440	42.7867
1.2400	42.7482
1.2360	42.4628
1.2320	42.5592
1.2280	42.3755
1.2240	42.5351
1.2200	42.3515
1.2160	42.0732
1.2120	41.7805
1.2080	41.9619
1.2040	42.0091
1.2000	42.0328
1.1960	41.9855
1.1920	41.6578
1.1880	41.8442
1.1840	41.5647
1.1800	41.6401
1.1760	41.3385
1.1720	41.1026
1.1680	41.1255
1.1640	40.8864
1.1600	40.7795
1.1560	40.7297
1.1520	40.5666
1.1480	40.8981
1.1440	40.5057
1.1400	40.1117
1.1360	40.1117
1.1320	39.8564
1.1280	40.0528
1.1240	39.7217
1.1200	39.4510
1.1160	39.1371
1.1120	39.2504
1.1080	39.2949
1.1040	39.2709
1.1000	38.6413
1.0960	38.5288
1.0920	38.2348
1.0880	38.2749
1.0840	37.9209
1.0800	38.0487
1.0760	38.2493
1.0720	38.2311
1.0680	37.7700
1.0640	37.5174
1.0600	37.3769
1.0560	37.0164
1.0520	37.1868
1.0480	36.7903
1.0440	36.6689
1.0400	36.5469
1.0360	36.6681
1.0320	36.3404
1.0280	36.1130
1.0240	36.1546
1.0200	35.8336
1.0160	35.2559
1.0120	35.2762
1.0080	35.3455
1.0040	35.0969
1.0000	35.1045
0.9960	34.8848
0.9920	34.6969
0.9880	33.8700
0.9840	34.1011
0.9800	34.1305
0.9760	34.0358
0.9720	33.8828
0.9680	33.2915
0.9640	33.4066
0.9600	32.9855
0.9560	32.6598
0.9520	32.6982
0.9480	32.6006
0.9440	32.1015
0.9400	32.0427
0.9360	32.0625
0.9320	31.8507
0.9280	31.4674
0.9240	31.2781
0.9200	30.9881
0.9160	30.8674
0.9120	30.7518
0.9080	30.4233
0.9040	30.1123
0.9000	29.8898
0.8960	29.8093
0.8920	29.4439
0.8880	29.4516
0.8840	29.5443
0.8800	29.0593
0.8760	29.0666
0.8720	28.8562
0.8680	28.7385
0.8640	28.5650
0.8600	28.2891
0.8560	28.2803
0.8520	27.9942
0.8480	27.7738
0.8440	27.6166
0.8400	27.3098
0.8360	27.1452
0.8320	27.1453
0.8280	26.7186
0.8240	26.4231
0.8200	26.3368
0.8160	26.3435
0.8120	26.0947
0.8080	25.7843
0.8040	25.6347
0.8000	25.2283
0.7990	24.5208
0.7980	24.5192
0.7970	24.5894
0.7960	24.4637
0.7950	24.4304
0.7940	23.8745
0.7930	24.1752
0.7920	24.1435
0.7910	24.1158
0.7900	24.0829
0.7890	24.2148
0.7880	24.0132
0.7870	24.1450
0.7860	24.1615
0.7850	24.0132
0.7840	23.8404
0.7830	23.5471
0.7820	23.4021
0.7810	23.2924
0.7800	23.3881
0.7790	23.5372
0.7780	23.4986
0.7770	23.3311
0.7760	23.2991
0.7750	23.1491
0.7740	22.8943
0.7730	22.7593
0.7720	22.8702
0.7710	22.8702
0.7700	22.7510
0.7690	22.7292
0.7680	22.8545
0.7670	22.3668
0.7660	22.3823
0.7650	22.3668
0.7640	22.2317
0.7630	22.1702
0.7620	22.1243
0.7610	22.0509
0.7600	22.1275
0.7590	22.1307
0.7580	21.8293
0.7570	21.8992
0.7560	21.7700
0.7550	21.7700
0.7540	21.5442
0.7530	21.5085
0.7520	21.3794
0.7510	21.4181
0.7500	21.4783
0.7490	21.1838
0.7480	21.2685
0.7470	21.2535
0.7460	21.0284
0.7450	21.0525
0.7440	20.8789
0.7430	20.5049
0.7420	20.8421
0.7410	20.7859
0.7400	20.6801
0.7390	20.5302
0.7380	20.5302
0.7370	20.4097
0.7360	20.6312
0.7350	20.6312
0.7340	20.5991
0.7330	20.2806
0.7320	20.1741
0.7310	19.9524
0.7300	19.6900
0.7290	19.6337
0.7280	19.7956
0.7270	19.7365
0.7260	19.8071
0.7250	19.4875
0.7240	19.5691
0.7230	19.3778
0.7220	19.3130
0.7210	19.1782
0.7200	19.5563
0.7190	19.2620
0.7180	19.1921
0.7170	18.9227
0.7160	18.9089
0.7150	18.8568
0.7140	18.8981
0.7130	18.7493
0.7120	18.3994
0.7110	18.3724
0.7100	18.4806
0.7090	18.3589
0.7080	18.3724
0.7070	18.4266
0.7060	18.1691
0.7050	18.1557
0.7040	17.9806
0.7030	17.6720
0.7020	17.6459
0.7010	17.6329
0.7000	17.8297
0.6990	17.8961
0.6980	17.6749
0.6970	17.5542
0.6960	17.4348
0.6950	17.3822
0.6940	17.2846
0.6930	17.0958
0.6920	17.0700
0.6910	17.0700
0.6900	16.9466
0.6890	17.0238
0.6880	16.9851
0.6870	16.9466
0.6860	16.6872
0.6850	16.5262
0.6840	16.4406
0.6830	16.2924
0.6820	16.2924
0.6810	16.2800
0.6800	16.2429
0.6790	16.1570
0.6780	16.0702
0.6770	16.1073
0.6760	15.9216
0.6750	15.9461
0.6740	15.7612
0.6730	15.5775
0.6720	15.5775
0.6710	16.0422
0.6700	16.0672
0.6690	16.0922
0.6680	16.0183
0.6670	15.4739
0.6660	15.5969
0.6650	15.5969
0.6640	15.4609
0.6630	15.2770
0.6620	15.3734
0.6610	15.3855
0.6600	14.7833
0.6590	15.0302
0.6580	14.7485
0.6570	14.8657
0.6560	14.5929
0.6550	14.6504
0.6540	14.9486
0.6530	14.7652
0.6520	14.6950
0.6510	14.6950
0.6500	14.5137
0.6490	14.2106
0.6480	14.0207
0.6470	13.9649
0.6460	14.1666
0.6450	14.0545
0.6440	14.0432
0.6430	14.0883
0.6420	14.0883
0.6410	14.0770
0.6400	13.9422
0.6390	13.7965
0.6380	13.6598
0.6370	13.4918
0.6360	13.6007
0.6350	13.4918
0.6340	13.3788
0.6330	13.3788
0.6320	13.4224
0.6310	13.4334
0.6300	13.4224
0.6290	13.3308
0.6280	13.2041
0.6270	12.8832
0.6260	12.8200
0.6250	12.8095
0.6240	12.9235
0.6230	12.9664
0.6220	12.7698
0.6210	12.6861
0.6200	12.6834
0.6190	12.6208
0.6180	12.7783
0.6170	12.5633
0.6160	12.6876
0.6150	12.7191
0.6140	12.7191
0.6130	12.3353
0.6120	12.2518
0.6110	12.2518
0.6100	12.1169
0.6090	12.1067
0.6080	11.9620
0.6070	12.1476
0.6060	12.1992
0.6050	11.9695
0.6040	11.8629
0.6030	11.7573
0.6020	11.8076
0.6010	11.8785
0.6000	11.6754
0.5990	11.7610
0.5980	11.5262
0.5970	11.6387
0.5960	11.4030
0.5950	11.4933
0.5940	11.3533
0.5930	11.1372
0.5920	11.1470
0.5910	11.0190
0.5900	11.1928
0.5890	11.0874
0.5880	10.7822
0.5870	11.2061
0.5860	10.8303
0.5850	11.0153
0.5840	10.6446
0.5830	10.4229
0.5820	10.4322
0.5810	10.5878
0.5800	10.5259
0.5790	10.4055
0.5780	10.1589
0.5770	10.0666
0.5760	9.6718
0.5750	9.7776
0.5740	9.8498
0.5730	9.5976
0.5720	9.6478
0.5710	9.7174
0.5700	9.7877
0.5690	9.4902
0.5680	9.4732
0.5670	9.3403
0.5660	9.2076
0.5650	9.1992
0.5640	8.9182
0.5630	8.9478
0.5620	8.8567
0.5610	8.6341
0.5600	8.6501
0.5590	8.5732
0.5580	8.5544
0.5570	8.4834
0.5560	8.4678
0.5550	8.0413
0.5540	8.0907
0.5530	7.7950
0.5520	7.9978
0.5510	7.9194
0.5500	7.9647
0.5490	7.8856
0.5480	7.3813
0.5470	7.2349
0.5460	7.0891
0.5450	7.0275
0.5440	7.2404
0.5430	6.9235
0.5420	6.8259
0.5410	7.1229
0.5400	7.1442
0.5390	6.9364
0.5380	6.8042
0.5370	6.8598
0.5360	6.6858
0.5350	6.7270
0.5340	6.7408
0.5330	6.5403
0.5320	5.9219
0.5310	6.1068
0.5300	6.1262
0.5290	6.1391
0.5280	6.1391
0.5270	6.1586
0.5260	5.8401
0.5250	5.7394
0.5240	5.6201
0.5230	5.9469
0.5220	5.5304
0.5210	5.5424
0.5200	5.6076
0.5190	5.4889
0.5180	5.7649
0.5170	5.0963
0.5160	5.1133
0.5150	5.4695
0.5140	5.1417
0.5130	5.1360
0.5120	5.0444
0.5110	4.9016
0.5100	4.9351
0.5090	4.9295
0.5080	4.6393
0.5070	4.6286
0.5060	4.6447
0.5050	4.6393
0.5040	4.5244
0.5030	4.3881
0.5020	4.4091
0.5010	4.2354
0.5000	4.4197
0.4990	4.4567
0.4980	4.4039
0.4970	4.2677
0.4960	4.1297
0.4950	4.1247
0.4940	4.0382
0.4930	4.0184
0.4920	3.5838
0.4910	3.7327
0.4900	3.5929
0.4890	3.7660
0.4880	3.7947
0.4870	3.7899
0.4860	3.6249
0.4850	3.4625
0.4840	3.4804
0.4830	3.3630
0.4820	3.3807
0.4810	3.4030
0.4800	3.3852
0.4790	3.3719
0.4780	3.3896
0.4770	3.3985
0.4760	3.3941
0.4750	3.2671
0.4740	3.2543
0.4730	3.2500
0.4720	3.1227
0.4710	2.8682
0.4700	2.8140
0.4690	2.7988
0.4680	2.8064
0.4670	2.8102
0.4660	2.7837
0.4650	2.7988
0.4640	2.8254
0.4630	2.6584
0.4620	2.6440
0.4610	2.6404
0.4600	2.6584
0.4590	2.3949
0.4580	2.4078
0.4570	2.4434
0.4560	2.3225
0.4550	2.1569
0.4540	2.2935
0.4530	2.1421
0.4520	2.1569
0.4510	1.9755
0.4500	1.8450
0.4490	1.9490
0.4480	1.6674
0.4470	1.9702
0.4460	1.7997
0.4450	1.8021
0.4440	1.6792
0.4430	1.6863
0.4420	1.5117
0.4410	1.5333
0.4400	1.5268
0.4390	1.5311
0.4380	1.3801
0.4370	1.1259
0.4360	1.3762
0.4350	1.3665
0.4340	1.0418
0.4330	0.7888
0.4320	1.0525
0.4310	0.6217
0.4300	0.6229
0.4290	0.7179
0.4280	0.2947
0.4270	0.7244
0.4260	0.7277
0.4250	0.2954
0.4240	0.4626
0.4230	0.2996
0.4220	0.0037
0.4210	0.1354
0.4200	0.0037
0.4190	0.1321
0.4180	0.0542
0.4170	-0.3355
0.4160	-0.3732
0.4150	-0.3737
0.4140	-0.3735
0.4130	-0.3734
0.4120	-0.1148
0.4110	-0.2819
0.4100	-0.5405
0.4090	-0.5398
0.4080	-0.7083
0.4070	-0.4508
0.4060	-0.7100
0.4050	-0.4508
0.4040	-0.4548
0.4030	-0.7155
0.4020	-1.0588
0.4010	-1.0610
0.4000	-1.2334
