Name:  Gray/dark brown extremely stoney coarse sandy 
Type:  Soils
Class:  Inceptisol
Subclass:  Cryumbrept
Particle Size:  see additional information
Sample No.:  87P3855
Owner:  JHU
Wavelength range:  All
Origin:  Lake Co., Co. via USDA Soil Conservation service.

Description:  Dark grayish brown and very dark brown extremely stoney 
coarse sandy loam (loamy skeletal, mixed, pergelic).




Measurement:  Directional (10 degree) hemispherical reflectance
First Column:  X
Second Column:  Y
X Units:  Wavelength (micrometers)
Y Units:  Reflectance (percent)
First X Value:  14.0112
Last X Value:  0.4000
Number of X Values:  2844
Additional information:  87P3855a.txt

14.0112	1.9641
13.9734	2.0002
13.9359	2.0259
13.8985	2.0410
13.8614	2.0530
13.8244	2.0693
13.7876	2.0925
13.7511	2.1189
13.7147	2.1404
13.6785	2.1550
13.6425	2.1648
13.6067	2.1665
13.5711	2.1609
13.5356	2.1501
13.5004	2.1370
13.4653	2.1240
13.4304	2.1167
13.3957	2.1213
13.3612	2.1374
13.3269	2.1577
13.2927	2.1768
13.2587	2.1916
13.2249	2.2041
13.1912	2.2131
13.1577	2.2263
13.1244	2.2517
13.0913	2.2891
13.0583	2.3347
13.0255	2.3877
12.9929	2.4485
12.9604	2.5139
12.9281	2.5752
12.8959	2.6291
12.8639	2.6702
12.8321	2.6892
12.8004	2.6794
12.7688	2.6445
12.7375	2.5962
12.7063	2.5476
12.6752	2.5095
12.6443	2.4951
12.6135	2.5076
12.5829	2.5386
12.5524	2.5752
12.5221	2.6008
12.4919	2.6020
12.4619	2.5698
12.4320	2.5015
12.4023	2.4092
12.3727	2.3122
12.3432	2.2310
12.3139	2.1814
12.2847	2.1702
12.2557	2.1909
12.2268	2.2312
12.1980	2.2773
12.1694	2.3237
12.1409	2.3699
12.1125	2.4192
12.0843	2.4741
12.0562	2.5337
12.0282	2.5923
12.0003	2.6448
11.9726	2.6924
11.9450	2.7393
11.9176	2.7891
11.8903	2.8450
11.8631	2.9065
11.8360	2.9719
11.8090	3.0356
11.7822	3.0898
11.7555	3.1333
11.7289	3.1650
11.7024	3.1858
11.6760	3.1987
11.6498	3.2085
11.6237	3.2214
11.5977	3.2371
11.5718	3.2534
11.5460	3.2693
11.5203	3.2839
11.4948	3.2954
11.4694	3.3030
11.4440	3.3066
11.4188	3.3091
11.3937	3.3108
11.3688	3.3135
11.3439	3.3176
11.3191	3.3225
11.2944	3.3269
11.2699	3.3281
11.2455	3.3252
11.2211	3.3210
11.1969	3.3186
11.1727	3.3205
11.1487	3.3254
11.1248	3.3315
11.1010	3.3381
11.0773	3.3418
11.0536	3.3389
11.0301	3.3313
11.0067	3.3218
10.9834	3.3115
10.9602	3.3015
10.9370	3.2942
10.9140	3.2927
10.8911	3.2949
10.8682	3.2964
10.8455	3.2981
10.8229	3.2993
10.8003	3.3005
10.7779	3.3032
10.7555	3.3096
10.7332	3.3215
10.7111	3.3408
10.6890	3.3664
10.6670	3.3977
10.6451	3.4331
10.6233	3.4717
10.6015	3.5117
10.5799	3.5503
10.5584	3.5869
10.5369	3.6225
10.5155	3.6597
10.4942	3.6982
10.4730	3.7361
10.4519	3.7739
10.4309	3.8118
10.4099	3.8494
10.3891	3.8877
10.3683	3.9275
10.3476	3.9722
10.3270	4.0198
10.3065	4.0664
10.2860	4.1108
10.2657	4.1533
10.2454	4.1951
10.2252	4.2361
10.2050	4.2761
10.1850	4.3166
10.1650	4.3586
10.1451	4.4009
10.1253	4.4404
10.1056	4.4795
10.0859	4.5210
10.0663	4.5657
10.0468	4.6152
10.0274	4.6726
10.0080	4.7392
9.9887	4.8122
9.9695	4.8852
9.9504	4.9546
9.9313	5.0195
9.9123	5.0715
9.8934	5.1079
9.8746	5.1306
9.8558	5.1474
9.8371	5.1660
9.8185	5.1916
9.7999	5.2324
9.7814	5.2937
9.7630	5.3699
9.7447	5.4563
9.7264	5.5493
9.7082	5.6448
9.6900	5.7395
9.6719	5.8259
9.6539	5.9009
9.6360	5.9626
9.6181	6.0071
9.6003	6.0312
9.5825	6.0322
9.5649	6.0110
9.5472	5.9726
9.5297	5.9206
9.5122	5.8589
9.4948	5.7973
9.4774	5.7429
9.4601	5.7004
9.4429	5.6750
9.4257	5.6745
9.4086	5.7060
9.3916	5.7695
9.3746	5.8596
9.3577	5.9690
9.3408	6.0854
9.3240	6.1963
9.3073	6.2888
9.2906	6.3557
9.2740	6.3970
9.2574	6.4172
9.2409	6.4223
9.2245	6.4201
9.2081	6.4167
9.1918	6.4145
9.1755	6.4072
9.1593	6.3872
9.1431	6.3525
9.1270	6.3039
9.1110	6.2402
9.0950	6.1658
9.0791	6.0869
9.0632	6.0080
9.0474	5.9289
9.0316	5.8518
9.0159	5.7839
9.0003	5.7265
8.9847	5.6802
8.9691	5.6460
8.9536	5.6247
8.9382	5.6155
8.9228	5.6106
8.9075	5.6072
8.8922	5.6030
8.8770	5.5950
8.8618	5.5801
8.8467	5.5583
8.8316	5.5332
8.8166	5.5066
8.8016	5.4741
8.7867	5.4341
8.7718	5.3874
8.7570	5.3335
8.7422	5.2688
8.7275	5.1907
8.7129	5.0947
8.6982	4.9739
8.6837	4.8247
8.6692	4.6592
8.6547	4.5019
8.6403	4.3845
8.6259	4.3313
8.6116	4.3516
8.5973	4.4309
8.5830	4.5427
8.5688	4.6540
8.5547	4.7414
8.5406	4.7995
8.5266	4.8364
8.5126	4.8623
8.4986	4.8865
8.4847	4.9121
8.4708	4.9394
8.4570	4.9617
8.4432	4.9753
8.4295	4.9824
8.4158	4.9844
8.4022	4.9807
8.3886	4.9722
8.3750	4.9575
8.3615	4.9363
8.3481	4.9084
8.3347	4.8774
8.3213	4.8457
8.3079	4.8137
8.2946	4.7827
8.2814	4.7527
8.2682	4.7236
8.2550	4.6941
8.2419	4.6631
8.2288	4.6260
8.2158	4.5774
8.2028	4.5129
8.1898	4.4324
8.1769	4.3359
8.1640	4.2246
8.1512	4.0996
8.1384	3.9617
8.1256	3.8144
8.1129	3.6616
8.1002	3.5107
8.0876	3.3694
8.0750	3.2402
8.0624	3.1238
8.0499	3.0181
8.0374	2.9192
8.0250	2.8264
8.0126	2.7380
8.0002	2.6543
7.9879	2.5754
7.9756	2.5000
7.9634	2.4275
7.9512	2.3557
7.9390	2.2842
7.9268	2.2143
7.9147	2.1482
7.9027	2.0874
7.8906	2.0325
7.8786	1.9849
7.8667	1.9470
7.8548	1.9192
7.8429	1.9019
7.8310	1.8931
7.8192	1.8909
7.8075	1.8914
7.7957	1.8887
7.7840	1.8801
7.7723	1.8682
7.7607	1.8560
7.7491	1.8462
7.7375	1.8398
7.7260	1.8367
7.7145	1.8357
7.7031	1.8328
7.6916	1.8254
7.6802	1.8142
7.6689	1.7998
7.6575	1.7830
7.6462	1.7664
7.6350	1.7507
7.6238	1.7368
7.6126	1.7268
7.6014	1.7224
7.5903	1.7224
7.5792	1.7253
7.5681	1.7307
7.5571	1.7366
7.5461	1.7388
7.5351	1.7349
7.5242	1.7290
7.5133	1.7239
7.5024	1.7190
7.4916	1.7161
7.4807	1.7168
7.4700	1.7192
7.4592	1.7197
7.4485	1.7183
7.4378	1.7168
7.4272	1.7163
7.4165	1.7158
7.4059	1.7173
7.3954	1.7212
7.3848	1.7251
7.3743	1.7278
7.3639	1.7290
7.3534	1.7275
7.3430	1.7241
7.3326	1.7192
7.3222	1.7126
7.3119	1.7043
7.3016	1.6936
7.2914	1.6811
7.2811	1.6689
7.2709	1.6587
7.2607	1.6555
7.2506	1.6597
7.2404	1.6687
7.2303	1.6807
7.2203	1.6936
7.2102	1.7056
7.2002	1.7161
7.1902	1.7256
7.1803	1.7363
7.1703	1.7463
7.1604	1.7551
7.1506	1.7612
7.1407	1.7661
7.1309	1.7712
7.1211	1.7759
7.1113	1.7781
7.1016	1.7788
7.0919	1.7769
7.0822	1.7712
7.0725	1.7637
7.0629	1.7571
7.0533	1.7549
7.0437	1.7581
7.0341	1.7644
7.0246	1.7744
7.0151	1.7837
7.0056	1.7900
6.9962	1.7925
6.9867	1.7935
6.9773	1.7971
6.9679	1.8061
6.9586	1.8201
6.9493	1.8384
6.9400	1.8555
6.9307	1.8679
6.9214	1.8750
6.9122	1.8782
6.9030	1.8801
6.8938	1.8826
6.8847	1.8865
6.8755	1.8923
6.8664	1.8987
6.8573	1.9045
6.8483	1.9126
6.8393	1.9246
6.8302	1.9424
6.8213	1.9673
6.8123	2.0002
6.8034	2.0430
6.7944	2.0925
6.7855	2.1450
6.7767	2.1985
6.7678	2.2507
6.7590	2.2986
6.7502	2.3391
6.7414	2.3706
6.7327	2.3933
6.7239	2.4060
6.7152	2.4111
6.7065	2.4121
6.6979	2.4121
6.6892	2.4111
6.6806	2.4077
6.6720	2.4006
6.6634	2.3882
6.6549	2.3711
6.6464	2.3528
6.6378	2.3354
6.6294	2.3201
6.6209	2.3059
6.6124	2.2930
6.6040	2.2812
6.5956	2.2722
6.5872	2.2651
6.5789	2.2607
6.5705	2.2590
6.5622	2.2588
6.5539	2.2576
6.5456	2.2549
6.5374	2.2519
6.5292	2.2488
6.5209	2.2436
6.5128	2.2395
6.5046	2.2402
6.4964	2.2446
6.4883	2.2500
6.4802	2.2554
6.4721	2.2583
6.4640	2.2559
6.4560	2.2476
6.4480	2.2375
6.4399	2.2290
6.4320	2.2229
6.4240	2.2197
6.4160	2.2197
6.4081	2.2202
6.4002	2.2183
6.3923	2.2126
6.3844	2.2041
6.3766	2.1931
6.3687	2.1802
6.3609	2.1677
6.3531	2.1580
6.3454	2.1492
6.3376	2.1404
6.3299	2.1299
6.3221	2.1172
6.3144	2.1016
6.3068	2.0828
6.2991	2.0627
6.2914	2.0427
6.2838	2.0234
6.2762	2.0061
6.2686	1.9893
6.2611	1.9746
6.2535	1.9639
6.2460	1.9560
6.2385	1.9502
6.2310	1.9443
6.2235	1.9360
6.2160	1.9238
6.2086	1.9072
6.2011	1.8892
6.1937	1.8735
6.1863	1.8625
6.1790	1.8557
6.1716	1.8530
6.1643	1.8508
6.1570	1.8472
6.1496	1.8413
6.1424	1.8335
6.1351	1.8262
6.1278	1.8188
6.1206	1.8120
6.1134	1.8074
6.1062	1.8040
6.0990	1.8003
6.0918	1.7969
6.0847	1.7949
6.0776	1.7947
6.0704	1.7954
6.0633	1.7986
6.0563	1.8052
6.0492	1.8140
6.0421	1.8232
6.0351	1.8323
6.0281	1.8406
6.0211	1.8464
6.0141	1.8511
6.0071	1.8560
6.0002	1.8628
5.9932	1.8730
5.9863	1.8872
5.9794	1.9038
5.9725	1.9241
5.9657	1.9460
5.9588	1.9697
5.9520	1.9936
5.9451	2.0171
5.9383	2.0408
5.9315	2.0644
5.9247	2.0891
5.9180	2.1172
5.9112	2.1484
5.9045	2.1833
5.8978	2.2205
5.8911	2.2595
5.8844	2.3000
5.8777	2.3420
5.8711	2.3835
5.8644	2.4226
5.8578	2.4580
5.8512	2.4883
5.8446	2.5120
5.8380	2.5310
5.8314	2.5488
5.8249	2.5671
5.8184	2.5859
5.8118	2.6074
5.8053	2.6316
5.7988	2.6562
5.7923	2.6804
5.7859	2.7041
5.7794	2.7288
5.7730	2.7559
5.7666	2.7878
5.7602	2.8281
5.7538	2.8765
5.7474	2.9319
5.7410	2.9961
5.7347	3.0669
5.7283	3.1440
5.7220	3.2295
5.7157	3.3249
5.7094	3.4297
5.7031	3.5415
5.6969	3.6594
5.6906	3.7817
5.6844	3.9045
5.6782	4.0232
5.6719	4.1367
5.6657	4.2441
5.6596	4.3454
5.6534	4.4414
5.6472	4.5337
5.6411	4.6250
5.6349	4.7182
5.6288	4.8135
5.6227	4.9109
5.6166	5.0112
5.6106	5.1128
5.6045	5.2131
5.5984	5.3100
5.5924	5.4043
5.5864	5.4971
5.5804	5.5913
5.5744	5.6897
5.5684	5.7932
5.5624	5.8989
5.5564	6.0041
5.5505	6.1064
5.5445	6.2058
5.5386	6.3032
5.5327	6.4016
5.5268	6.5044
5.5209	6.6084
5.5151	6.7095
5.5092	6.8061
5.5033	6.8957
5.4975	6.9778
5.4917	7.0542
5.4859	7.1279
5.4801	7.1997
5.4743	7.2680
5.4685	7.3337
5.4628	7.3974
5.4570	7.4563
5.4513	7.5073
5.4455	7.5498
5.4398	7.5823
5.4341	7.6037
5.4284	7.6157
5.4228	7.6213
5.4171	7.6211
5.4114	7.6147
5.4058	7.6003
5.4002	7.5769
5.3945	7.5459
5.3889	7.5102
5.3833	7.4743
5.3778	7.4416
5.3722	7.4158
5.3666	7.3987
5.3611	7.3909
5.3555	7.3923
5.3500	7.4045
5.3445	7.4282
5.3390	7.4604
5.3335	7.4973
5.3280	7.5361
5.3225	7.5749
5.3171	7.6113
5.3116	7.6455
5.3062	7.6824
5.3008	7.7246
5.2954	7.7715
5.2900	7.8227
5.2846	7.8796
5.2792	7.9411
5.2738	8.0044
5.2684	8.0696
5.2631	8.1367
5.2578	8.2065
5.2524	8.2803
5.2471	8.3581
5.2418	8.4411
5.2365	8.5276
5.2312	8.6137
5.2260	8.6968
5.2207	8.7707
5.2154	8.8332
5.2102	8.8860
5.2050	8.9314
5.1998	8.9707
5.1945	9.0061
5.1893	9.0390
5.1842	9.0696
5.1790	9.0954
5.1738	9.1155
5.1686	9.1325
5.1635	9.1472
5.1584	9.1599
5.1532	9.1714
5.1481	9.1831
5.1430	9.1963
5.1379	9.2097
5.1328	9.2224
5.1277	9.2341
5.1227	9.2446
5.1176	9.2551
5.1126	9.2649
5.1075	9.2734
5.1025	9.2824
5.0975	9.2886
5.0925	9.2907
5.0875	9.2883
5.0825	9.2839
5.0775	9.2805
5.0726	9.2795
5.0676	9.2834
5.0627	9.2929
5.0577	9.3054
5.0528	9.3183
5.0479	9.3296
5.0430	9.3396
5.0380	9.3484
5.0332	9.3557
5.0283	9.3628
5.0234	9.3686
5.0185	9.3733
5.0137	9.3786
5.0088	9.3860
5.0040	9.3977
4.9992	9.4150
4.9944	9.4365
4.9896	9.4614
4.9848	9.4870
4.9800	9.5136
4.9752	9.5437
4.9704	9.5771
4.9657	9.6130
4.9609	9.6494
4.9562	9.6828
4.9514	9.7104
4.9467	9.7304
4.9420	9.7453
4.9373	9.7602
4.9326	9.7790
4.9279	9.8052
4.9232	9.8415
4.9186	9.8884
4.9139	9.9453
4.9092	10.0110
4.9046	10.0822
4.9000	10.1584
4.8953	10.2378
4.8907	10.3161
4.8861	10.3901
4.8815	10.4570
4.8769	10.5173
4.8723	10.5703
4.8678	10.6167
4.8632	10.6582
4.8586	10.6972
4.8541	10.7343
4.8495	10.7685
4.8450	10.8008
4.8405	10.8313
4.8360	10.8596
4.8315	10.8842
4.8270	10.9050
4.8225	10.9231
4.8180	10.9397
4.8135	10.9543
4.8090	10.9692
4.8046	10.9861
4.8001	11.0053
4.7957	11.0259
4.7913	11.0468
4.7868	11.0674
4.7824	11.0884
4.7780	11.1069
4.7736	11.1225
4.7692	11.1360
4.7648	11.1489
4.7605	11.1616
4.7561	11.1733
4.7517	11.1848
4.7474	11.1980
4.7431	11.2121
4.7387	11.2260
4.7344	11.2400
4.7301	11.2544
4.7258	11.2680
4.7215	11.2790
4.7172	11.2868
4.7129	11.2905
4.7086	11.2866
4.7043	11.2756
4.7000	11.2585
4.6958	11.2400
4.6915	11.2238
4.6873	11.2153
4.6831	11.2177
4.6788	11.2302
4.6746	11.2509
4.6704	11.2800
4.6662	11.3149
4.6620	11.3547
4.6578	11.3982
4.6536	11.4426
4.6495	11.4875
4.6453	11.5315
4.6411	11.5742
4.6370	11.6176
4.6328	11.6628
4.6287	11.7092
4.6246	11.7556
4.6205	11.7988
4.6163	11.8388
4.6122	11.8750
4.6081	11.9082
4.6040	11.9411
4.6000	11.9741
4.5959	12.0058
4.5918	12.0361
4.5877	12.0654
4.5837	12.0937
4.5796	12.1228
4.5756	12.1540
4.5716	12.1875
4.5675	12.2197
4.5635	12.2483
4.5595	12.2719
4.5555	12.2910
4.5515	12.3071
4.5475	12.3205
4.5435	12.3300
4.5395	12.3347
4.5356	12.3337
4.5316	12.3259
4.5276	12.3108
4.5237	12.2920
4.5197	12.2744
4.5158	12.2605
4.5119	12.2485
4.5080	12.2390
4.5040	12.2317
4.5001	12.2246
4.4962	12.2163
4.4923	12.2085
4.4884	12.2024
4.4846	12.2019
4.4807	12.2075
4.4768	12.2192
4.4730	12.2368
4.4691	12.2622
4.4652	12.2964
4.4614	12.3344
4.4576	12.3740
4.4537	12.4145
4.4499	12.4528
4.4461	12.4846
4.4423	12.5092
4.4385	12.5324
4.4347	12.5583
4.4309	12.5888
4.4271	12.6255
4.4233	12.6674
4.4196	12.7119
4.4158	12.7524
4.4120	12.7878
4.4083	12.8188
4.4045	12.8474
4.4008	12.8755
4.3971	12.9065
4.3934	12.9423
4.3896	12.9834
4.3859	13.0278
4.3822	13.0749
4.3785	13.1218
4.3748	13.1660
4.3711	13.2065
4.3674	13.2451
4.3638	13.2812
4.3601	13.3132
4.3564	13.3418
4.3528	13.3691
4.3491	13.3938
4.3455	13.4162
4.3418	13.4377
4.3382	13.4585
4.3346	13.4751
4.3310	13.4846
4.3273	13.4890
4.3237	13.4880
4.3201	13.4797
4.3165	13.4638
4.3129	13.4431
4.3094	13.4192
4.3058	13.3943
4.3022	13.3715
4.2986	13.3547
4.2951	13.3435
4.2915	13.3318
4.2880	13.3103
4.2844	13.2722
4.2809	13.2153
4.2774	13.1467
4.2738	13.0825
4.2703	13.0405
4.2668	13.0356
4.2633	13.0713
4.2598	13.1350
4.2563	13.2070
4.2528	13.2688
4.2493	13.3117
4.2458	13.3357
4.2424	13.3457
4.2389	13.3506
4.2354	13.3591
4.2320	13.3720
4.2285	13.3896
4.2251	13.4109
4.2216	13.4353
4.2182	13.4626
4.2148	13.4895
4.2113	13.5110
4.2079	13.5249
4.2045	13.5298
4.2011	13.5280
4.1977	13.5222
4.1943	13.5156
4.1909	13.5131
4.1875	13.5166
4.1841	13.5205
4.1808	13.5212
4.1774	13.5173
4.1740	13.5105
4.1707	13.5019
4.1673	13.4922
4.1640	13.4836
4.1606	13.4770
4.1573	13.4682
4.1540	13.4555
4.1506	13.4423
4.1473	13.4326
4.1440	13.4257
4.1407	13.4199
4.1374	13.4138
4.1341	13.4048
4.1308	13.3899
4.1275	13.3698
4.1242	13.3484
4.1209	13.3291
4.1177	13.3122
4.1144	13.2981
4.1111	13.2861
4.1079	13.2744
4.1046	13.2614
4.1014	13.2483
4.0981	13.2358
4.0949	13.2246
4.0917	13.2153
4.0884	13.2075
4.0852	13.1992
4.0820	13.1862
4.0788	13.1672
4.0756	13.1418
4.0724	13.1125
4.0692	13.0822
4.0660	13.0539
4.0628	13.0295
4.0596	13.0068
4.0565	12.9814
4.0533	12.9528
4.0501	12.9211
4.0470	12.8884
4.0438	12.8562
4.0406	12.8288
4.0375	12.8083
4.0344	12.7898
4.0312	12.7695
4.0281	12.7456
4.0250	12.7168
4.0218	12.6826
4.0187	12.6474
4.0156	12.6194
4.0125	12.6001
4.0094	12.5864
4.0063	12.5749
4.0032	12.5620
4.0001	12.5442
3.9970	12.5193
3.9940	12.4914
3.9909	12.4673
3.9878	12.4472
3.9847	12.4294
3.9817	12.4133
3.9786	12.3972
3.9756	12.3808
3.9725	12.3620
3.9695	12.3437
3.9665	12.3283
3.9634	12.3149
3.9604	12.3020
3.9574	12.2878
3.9544	12.2710
3.9513	12.2502
3.9483	12.2273
3.9453	12.2055
3.9423	12.1880
3.9393	12.1748
3.9363	12.1657
3.9333	12.1582
3.9304	12.1479
3.9274	12.1316
3.9244	12.1118
3.9214	12.0893
3.9185	12.0632
3.9155	12.0356
3.9126	12.0100
3.9096	11.9870
3.9067	11.9663
3.9037	11.9455
3.9008	11.9245
3.8979	11.9011
3.8949	11.8718
3.8920	11.8383
3.8891	11.8039
3.8862	11.7710
3.8833	11.7417
3.8804	11.7133
3.8775	11.6865
3.8746	11.6601
3.8717	11.6338
3.8688	11.6071
3.8659	11.5808
3.8630	11.5559
3.8601	11.5315
3.8573	11.5051
3.8544	11.4782
3.8515	11.4519
3.8487	11.4265
3.8458	11.4021
3.8430	11.3794
3.8401	11.3586
3.8373	11.3379
3.8344	11.3159
3.8316	11.2925
3.8288	11.2685
3.8259	11.2434
3.8231	11.2153
3.8203	11.1867
3.8175	11.1599
3.8147	11.1340
3.8119	11.1079
3.8091	11.0825
3.8063	11.0578
3.8035	11.0305
3.8007	11.0012
3.7979	10.9719
3.7951	10.9436
3.7924	10.9148
3.7896	10.8835
3.7868	10.8501
3.7841	10.8149
3.7813	10.7780
3.7785	10.7424
3.7758	10.7092
3.7730	10.6770
3.7703	10.6433
3.7676	10.6057
3.7648	10.5656
3.7621	10.5254
3.7594	10.4873
3.7566	10.4536
3.7539	10.4236
3.7512	10.3960
3.7485	10.3669
3.7458	10.3342
3.7431	10.3020
3.7404	10.2729
3.7377	10.2458
3.7350	10.2197
3.7323	10.1941
3.7296	10.1692
3.7269	10.1421
3.7242	10.1115
3.7216	10.0835
3.7189	10.0569
3.7162	10.0295
3.7136	10.0002
3.7109	9.9682
3.7083	9.9399
3.7056	9.9150
3.7030	9.8930
3.7003	9.8755
3.6977	9.8603
3.6950	9.8445
3.6924	9.8239
3.6898	9.7986
3.6872	9.7729
3.6845	9.7478
3.6819	9.7214
3.6793	9.6970
3.6767	9.6753
3.6741	9.6526
3.6715	9.6260
3.6689	9.5984
3.6663	9.5722
3.6637	9.5481
3.6611	9.5261
3.6585	9.5097
3.6560	9.4978
3.6534	9.4836
3.6508	9.4638
3.6482	9.4428
3.6457	9.4189
3.6431	9.3926
3.6406	9.3647
3.6380	9.3391
3.6355	9.3152
3.6329	9.2895
3.6304	9.2617
3.6278	9.2329
3.6253	9.2011
3.6227	9.1684
3.6202	9.1367
3.6177	9.1084
3.6152	9.0847
3.6127	9.0639
3.6101	9.0420
3.6076	9.0151
3.6051	8.9839
3.6026	8.9494
3.6001	8.9157
3.5976	8.8845
3.5951	8.8574
3.5926	8.8335
3.5901	8.8086
3.5876	8.7805
3.5852	8.7492
3.5827	8.7126
3.5802	8.6723
3.5777	8.6282
3.5753	8.5810
3.5728	8.5344
3.5704	8.4924
3.5679	8.4558
3.5654	8.4221
3.5630	8.3904
3.5605	8.3594
3.5581	8.3225
3.5557	8.2763
3.5532	8.2243
3.5508	8.1679
3.5484	8.1072
3.5459	8.0417
3.5435	7.9770
3.5411	7.9155
3.5387	7.8554
3.5363	7.7956
3.5338	7.7351
3.5314	7.6716
3.5290	7.6040
3.5266	7.5268
3.5242	7.4363
3.5218	7.3269
3.5195	7.1946
3.5171	7.0373
3.5147	6.8625
3.5123	6.6877
3.5099	6.5349
3.5075	6.4206
3.5052	6.3542
3.5028	6.3330
3.5004	6.3440
3.4981	6.3684
3.4957	6.3923
3.4934	6.4067
3.4910	6.4075
3.4887	6.3977
3.4863	6.3813
3.4840	6.3618
3.4816	6.3401
3.4793	6.3188
3.4770	6.3003
3.4746	6.2807
3.4723	6.2556
3.4700	6.2229
3.4677	6.1853
3.4653	6.1435
3.4630	6.1006
3.4607	6.0620
3.4584	6.0307
3.4561	6.0022
3.4538	5.9697
3.4515	5.9324
3.4492	5.8894
3.4469	5.8403
3.4446	5.7871
3.4423	5.7341
3.4400	5.6797
3.4378	5.6181
3.4355	5.5456
3.4332	5.4626
3.4309	5.3716
3.4287	5.2786
3.4264	5.1936
3.4241	5.1267
3.4219	5.0818
3.4196	5.0571
3.4174	5.0483
3.4151	5.0527
3.4129	5.0661
3.4106	5.0871
3.4084	5.1162
3.4061	5.1538
3.4039	5.2002
3.4017	5.2502
3.3994	5.2966
3.3972	5.3371
3.3950	5.3706
3.3928	5.3948
3.3906	5.4123
3.3883	5.4277
3.3861	5.4419
3.3839	5.4529
3.3817	5.4621
3.3795	5.4758
3.3773	5.4963
3.3751	5.5249
3.3729	5.5627
3.3707	5.6077
3.3685	5.6492
3.3663	5.6841
3.3641	5.7141
3.3620	5.7414
3.3598	5.7693
3.3576	5.8000
3.3554	5.8347
3.3533	5.8694
3.3511	5.8989
3.3489	5.9231
3.3468	5.9421
3.3446	5.9556
3.3425	5.9668
3.3403	5.9758
3.3382	5.9839
3.3360	5.9910
3.3339	5.9946
3.3317	5.9931
3.3296	5.9878
3.3274	5.9792
3.3253	5.9700
3.3232	5.9614
3.3210	5.9560
3.3189	5.9531
3.3168	5.9475
3.3147	5.9346
3.3126	5.9138
3.3104	5.8855
3.3083	5.8523
3.3062	5.8193
3.3041	5.7895
3.3020	5.7619
3.2999	5.7361
3.2978	5.7124
3.2957	5.6880
3.2936	5.6611
3.2915	5.6350
3.2894	5.6106
3.2874	5.5857
3.2853	5.5578
3.2832	5.5307
3.2811	5.5068
3.2790	5.4834
3.2770	5.4597
3.2749	5.4360
3.2728	5.4109
3.2708	5.3818
3.2687	5.3474
3.2666	5.3120
3.2646	5.2795
3.2625	5.2515
3.2605	5.2270
3.2584	5.2051
3.2564	5.1855
3.2543	5.1677
3.2523	5.1487
3.2503	5.1269
3.2482	5.1033
3.2462	5.0779
3.2442	5.0510
3.2421	5.0242
3.2401	5.0002
3.2381	4.9795
3.2361	4.9599
3.2340	4.9404
3.2320	4.9204
3.2300	4.9026
3.2280	4.8879
3.2260	4.8750
3.2240	4.8608
3.2220	4.8445
3.2200	4.8235
3.2180	4.7983
3.2160	4.7712
3.2140	4.7473
3.2120	4.7278
3.2100	4.7114
3.2080	4.6943
3.2060	4.6755
3.2040	4.6533
3.2021	4.6289
3.2001	4.6047
3.1981	4.5825
3.1961	4.5627
3.1942	4.5456
3.1922	4.5271
3.1902	4.5049
3.1883	4.4783
3.1863	4.4477
3.1844	4.4162
3.1824	4.3867
3.1805	4.3611
3.1785	4.3423
3.1766	4.3281
3.1746	4.3166
3.1727	4.3061
3.1707	4.2930
3.1688	4.2773
3.1669	4.2602
3.1649	4.2405
3.1630	4.2163
3.1611	4.1894
3.1591	4.1653
3.1572	4.1448
3.1553	4.1252
3.1534	4.1062
3.1515	4.0874
3.1495	4.0679
3.1476	4.0481
3.1457	4.0295
3.1438	4.0151
3.1419	4.0039
3.1400	3.9902
3.1381	3.9714
3.1362	3.9490
3.1343	3.9267
3.1324	3.9067
3.1305	3.8870
3.1286	3.8677
3.1268	3.8491
3.1249	3.8279
3.1230	3.8052
3.1211	3.7839
3.1192	3.7663
3.1174	3.7515
3.1155	3.7405
3.1136	3.7322
3.1117	3.7248
3.1099	3.7180
3.1080	3.7104
3.1061	3.7007
3.1043	3.6860
3.1024	3.6684
3.1006	3.6496
3.0987	3.6291
3.0969	3.6077
3.0950	3.5891
3.0932	3.5735
3.0913	3.5569
3.0895	3.5408
3.0876	3.5266
3.0858	3.5144
3.0840	3.5034
3.0821	3.4963
3.0803	3.4941
3.0785	3.4939
3.0766	3.4907
3.0748	3.4829
3.0730	3.4731
3.0712	3.4604
3.0694	3.4453
3.0675	3.4309
3.0657	3.4155
3.0639	3.3992
3.0621	3.3828
3.0603	3.3667
3.0585	3.3538
3.0567	3.3428
3.0549	3.3328
3.0531	3.3237
3.0513	3.3140
3.0495	3.3064
3.0477	3.3030
3.0459	3.3015
3.0441	3.3025
3.0423	3.3015
3.0406	3.2932
3.0388	3.2786
3.0370	3.2580
3.0352	3.2371
3.0334	3.2185
3.0317	3.2060
3.0299	3.2056
3.0281	3.2124
3.0264	3.2205
3.0246	3.2273
3.0228	3.2302
3.0211	3.2263
3.0193	3.2146
3.0176	3.1968
3.0158	3.1777
3.0140	3.1582
3.0123	3.1389
3.0105	3.1255
3.0088	3.1233
3.0070	3.1294
3.0053	3.1399
3.0036	3.1494
3.0018	3.1528
3.0001	3.1482
2.9984	3.1367
2.9966	3.1250
2.9949	3.1177
2.9932	3.1121
2.9914	3.1074
2.9897	3.1006
2.9880	3.0911
2.9863	3.0813
2.9845	3.0754
2.9828	3.0771
2.9811	3.0852
2.9794	3.0940
2.9777	3.1023
2.9760	3.1057
2.9743	3.1011
2.9726	3.0896
2.9709	3.0730
2.9692	3.0559
2.9675	3.0403
2.9658	3.0283
2.9641	3.0249
2.9624	3.0261
2.9607	3.0264
2.9590	3.0234
2.9573	3.0159
2.9556	3.0044
2.9539	2.9875
2.9523	2.9714
2.9506	2.9641
2.9489	2.9636
2.9472	2.9692
2.9455	2.9819
2.9439	3.0017
2.9422	3.0195
2.9405	3.0310
2.9389	3.0381
2.9372	3.0391
2.9355	3.0320
2.9339	3.0185
2.9322	3.0044
2.9306	2.9929
2.9289	2.9822
2.9272	2.9766
2.9256	2.9822
2.9239	2.9988
2.9223	3.0229
2.9207	3.0503
2.9190	3.0754
2.9174	3.0920
2.9157	3.0955
2.9141	3.0886
2.9124	3.0791
2.9108	3.0723
2.9092	3.0725
2.9075	3.0808
2.9059	3.0928
2.9043	3.1072
2.9027	3.1226
2.9010	3.1357
2.8994	3.1460
2.8978	3.1533
2.8962	3.1587
2.8946	3.1628
2.8929	3.1623
2.8913	3.1606
2.8897	3.1619
2.8881	3.1648
2.8865	3.1694
2.8849	3.1748
2.8833	3.1819
2.8817	3.1931
2.8801	3.2058
2.8785	3.2195
2.8769	3.2349
2.8753	3.2517
2.8737	3.2659
2.8721	3.2746
2.8705	3.2827
2.8689	3.2956
2.8673	3.3122
2.8658	3.3318
2.8642	3.3530
2.8626	3.3745
2.8610	3.3933
2.8594	3.4092
2.8579	3.4243
2.8563	3.4394
2.8547	3.4538
2.8531	3.4658
2.8516	3.4748
2.8500	3.4834
2.8484	3.4956
2.8469	3.5102
2.8453	3.5256
2.8437	3.5417
2.8422	3.5576
2.8406	3.5718
2.8391	3.5867
2.8375	3.6050
2.8360	3.6260
2.8344	3.6450
2.8329	3.6592
2.8313	3.6697
2.8298	3.6777
2.8282	3.6843
2.8267	3.6904
2.8252	3.6965
2.8236	3.7012
2.8221	3.6999
2.8205	3.6914
2.8190	3.6824
2.8175	3.6767
2.8159	3.6746
2.8144	3.6758
2.8129	3.6794
2.8114	3.6843
2.8098	3.6885
2.8083	3.6936
2.8068	3.7048
2.8053	3.7180
2.8038	3.7314
2.8022	3.7424
2.8007	3.7463
2.7992	3.7436
2.7977	3.7356
2.7962	3.7244
2.7947	3.7082
2.7932	3.6863
2.7917	3.6655
2.7902	3.6489
2.7887	3.6374
2.7872	3.6335
2.7857	3.6323
2.7842	3.6282
2.7827	3.6177
2.7812	3.6045
2.7797	3.5950
2.7782	3.5874
2.7767	3.5830
2.7752	3.5803
2.7738	3.5713
2.7723	3.5535
2.7708	3.5303
2.7693	3.5049
2.7678	3.4802
2.7664	3.4553
2.7649	3.4343
2.7634	3.4233
2.7619	3.4243
2.7605	3.4387
2.7590	3.4695
2.7575	3.5166
2.7561	3.5815
2.7546	3.6626
2.7531	3.7566
2.7517	3.8650
2.7502	3.9834
2.7488	4.0981
2.7473	4.2041
2.7458	4.3020
2.7444	4.3933
2.7429	4.4795
2.7415	4.5669
2.7400	4.6736
2.7386	4.8105
2.7371	4.9775
2.7357	5.1780
2.7343	5.4075
2.7328	5.6489
2.7314	5.8850
2.7299	6.1123
2.7285	6.3420
2.7271	6.5871
2.7256	6.8616
2.7242	7.1782
2.7228	7.5334
2.7213	7.9092
2.7199	8.2859
2.7185	8.6428
2.7171	8.9626
2.7156	9.2300
2.7142	9.4380
2.7128	9.5820
2.7114	9.6660
2.7100	9.7077
2.7085	9.7395
2.7071	9.8000
2.7057	9.9272
2.7043	10.1504
2.7029	10.4824
2.7015	10.9099
2.7001	11.4089
2.6987	11.9570
2.6973	12.5373
2.6959	13.1418
2.6945	13.7671
2.6931	14.4130
2.6917	15.0678
2.6903	15.7067
2.6889	16.3059
2.6875	16.8527
2.6861	17.3457
2.6847	17.7871
2.6833	18.1826
2.6819	18.5410
2.6805	18.8642
2.6791	19.1518
2.6778	19.4035
2.6764	19.6291
2.6750	19.8364
2.6736	20.0249
2.6722	20.1936
2.6709	20.3471
2.6695	20.4907
2.6681	20.6271
2.6667	20.7590
2.6654	20.8952
2.6640	21.0351
2.6626	21.1750
2.6613	21.3102
2.6599	21.4389
2.6585	21.5615
2.6572	21.6747
2.6558	21.7758
2.6545	21.8703
2.6531	21.9587
2.6517	22.0436
2.6504	22.1249
2.6490	22.2014
2.6477	22.2714
2.6463	22.3349
2.6450	22.3918
2.6436	22.4472
2.6423	22.5026
2.6409	22.5563
2.6396	22.6059
2.6382	22.6474
2.6369	22.6809
2.6356	22.7072
2.6342	22.7280
2.6329	22.7492
2.6315	22.7741
2.6302	22.8032
2.6289	22.8364
2.6275	22.8740
2.6262	22.9160
2.6249	22.9597
2.6236	22.9990
2.6222	23.0309
2.6209	23.0517
2.6196	23.0637
2.6183	23.0710
2.6169	23.0798
2.6156	23.0961
2.6143	23.1215
2.6130	23.1491
2.6117	23.1755
2.6103	23.1938
2.6090	23.2033
2.6077	23.2097
2.6064	23.2170
2.6051	23.2292
2.6038	23.2441
2.6025	23.2573
2.6012	23.2697
2.5999	23.2753
2.5986	23.2729
2.5973	23.2714
2.5960	23.2741
2.5947	23.2839
2.5934	23.3022
2.5921	23.3300
2.5908	23.3664
2.5895	23.4035
2.5882	23.4372
2.5869	23.4645
2.5856	23.4777
2.5843	23.4775
2.5830	23.4714
2.5817	23.4665
2.5805	23.4662
2.5792	23.4741
2.5779	23.4872
2.5766	23.4980
2.5753	23.4990
2.5741	23.4899
2.5728	23.4750
2.5715	23.4577
2.5702	23.4413
2.5690	23.4318
2.5677	23.4282
2.5664	23.4291
2.5651	23.4323
2.5639	23.4379
2.5626	23.4460
2.5613	23.4504
2.5601	23.4487
2.5588	23.4409
2.5575	23.4247
2.5563	23.4018
2.5550	23.3742
2.5538	23.3488
2.5525	23.3308
2.5513	23.3159
2.5500	23.3029
2.5487	23.2912
2.5475	23.2775
2.5462	23.2600
2.5450	23.2412
2.5437	23.2263
2.5425	23.2175
2.5413	23.2089
2.5400	23.1999
2.5388	23.1891
2.5375	23.1728
2.5363	23.1520
2.5350	23.1318
2.5338	23.1157
2.5326	23.0996
2.5313	23.0817
2.5301	23.0612
2.5289	23.0368
2.5276	23.0065
2.5264	22.9787
2.5252	22.9611
2.5239	22.9496
2.5227	22.9365
2.5215	22.9211
2.5202	22.9047
2.5190	22.8862
2.5178	22.8669
2.5166	22.8527
2.5154	22.8444
2.5141	22.8337
2.5129	22.8215
2.5117	22.8117
2.5105	22.8066
2.5093	22.8054
2.5081	22.8049
2.5068	22.8005
2.5056	22.7858
2.5044	22.7643
2.5032	22.7480
2.5020	22.7426
2.5008	22.7504
2.4996	22.7712
2.4984	22.8002
2.4972	22.8229
2.4960	22.8298
2.4948	22.8256
2.4936	22.8151
2.4924	22.8041
2.4912	22.8000
2.4900	22.8071
2.4888	22.8268
2.4876	22.8527
2.4864	22.8808
2.4852	22.9121
2.4840	22.9453
2.4828	22.9794
2.4816	23.0073
2.4805	23.0234
2.4793	23.0319
2.4781	23.0366
2.4769	23.0414
2.4757	23.0571
2.4745	23.0898
2.4734	23.1332
2.4722	23.1762
2.4710	23.2126
2.4698	23.2433
2.4686	23.2687
2.4675	23.2910
2.4663	23.3185
2.4651	23.3527
2.4640	23.3864
2.4628	23.4196
2.4616	23.4526
2.4604	23.4824
2.4593	23.5119
2.4581	23.5456
2.4569	23.5832
2.4558	23.6201
2.4546	23.6530
2.4535	23.6835
2.4523	23.7131
2.4511	23.7446
2.4500	23.7817
2.4488	23.8261
2.4477	23.8747
2.4465	23.9269
2.4454	23.9792
2.4442	24.0278
2.4431	24.0754
2.4419	24.1254
2.4408	24.1730
2.4396	24.2148
2.4385	24.2575
2.4373	24.3058
2.4362	24.3561
2.4350	24.4106
2.4339	24.4738
2.4327	24.5461
2.4316	24.6179
2.4305	24.6850
2.4293	24.7497
2.4282	24.8073
2.4270	24.8539
2.4259	24.8969
2.4248	24.9404
2.4236	24.9853
2.4225	25.0317
2.4214	25.0854
2.4202	25.1515
2.4191	25.2248
2.4180	25.3002
2.4169	25.3784
2.4157	25.4460
2.4146	25.4919
2.4135	25.5156
2.4124	25.5202
2.4112	25.5192
2.4101	25.5209
2.4090	25.5329
2.4079	25.5632
2.4068	25.6037
2.4056	25.6484
2.4045	25.6957
2.4034	25.7348
2.4023	25.7658
2.4012	25.7892
2.4001	25.8034
2.3990	25.8095
2.3979	25.8049
2.3967	25.7985
2.3956	25.7985
2.3945	25.8005
2.3934	25.8061
2.3923	25.8185
2.3912	25.8347
2.3901	25.8471
2.3890	25.8508
2.3879	25.8481
2.3868	25.8395
2.3857	25.8263
2.3846	25.8144
2.3835	25.8110
2.3824	25.8185
2.3813	25.8344
2.3802	25.8498
2.3791	25.8596
2.3781	25.8632
2.3770	25.8671
2.3759	25.8771
2.3748	25.8923
2.3737	25.9125
2.3726	25.9347
2.3715	25.9465
2.3704	25.9382
2.3694	25.9174
2.3683	25.8962
2.3672	25.8798
2.3661	25.8657
2.3650	25.8559
2.3640	25.8486
2.3629	25.8349
2.3618	25.8105
2.3607	25.7856
2.3597	25.7736
2.3586	25.7763
2.3575	25.7834
2.3564	25.7846
2.3554	25.7770
2.3543	25.7573
2.3532	25.7270
2.3522	25.6933
2.3511	25.6706
2.3500	25.6642
2.3490	25.6679
2.3479	25.6743
2.3468	25.6862
2.3458	25.7038
2.3447	25.7226
2.3436	25.7436
2.3426	25.7773
2.3415	25.8290
2.3405	25.8923
2.3394	25.9599
2.3384	26.0292
2.3373	26.0930
2.3363	26.1428
2.3352	26.1801
2.3342	26.2136
2.3331	26.2468
2.3321	26.2780
2.3310	26.3105
2.3300	26.3464
2.3289	26.3869
2.3279	26.4304
2.3268	26.4775
2.3258	26.5234
2.3247	26.5622
2.3237	26.5964
2.3226	26.6281
2.3216	26.6572
2.3206	26.6850
2.3195	26.7116
2.3185	26.7333
2.3175	26.7465
2.3164	26.7521
2.3154	26.7621
2.3144	26.7839
2.3133	26.8215
2.3123	26.8752
2.3113	26.9387
2.3102	27.0021
2.3092	27.0590
2.3082	27.0981
2.3071	27.1196
2.3061	27.1262
2.3051	27.1254
2.3041	27.1281
2.3030	27.1440
2.3020	27.1796
2.3010	27.2345
2.3000	27.3002
2.2990	27.3639
2.2979	27.4167
2.2969	27.4555
2.2959	27.4875
2.2949	27.5168
2.2939	27.5441
2.2929	27.5724
2.2918	27.6034
2.2908	27.6345
2.2898	27.6657
2.2888	27.6987
2.2878	27.7380
2.2868	27.7802
2.2858	27.8188
2.2848	27.8486
2.2838	27.8664
2.2828	27.8735
2.2818	27.8742
2.2808	27.8749
2.2798	27.8810
2.2787	27.8959
2.2777	27.9145
2.2767	27.9294
2.2757	27.9389
2.2747	27.9435
2.2738	27.9460
2.2728	27.9518
2.2718	27.9611
2.2708	27.9728
2.2698	27.9833
2.2688	27.9909
2.2678	28.0004
2.2668	28.0148
2.2658	28.0370
2.2648	28.0673
2.2638	28.1049
2.2628	28.1428
2.2618	28.1723
2.2609	28.1884
2.2599	28.1933
2.2589	28.1894
2.2579	28.1752
2.2569	28.1572
2.2559	28.1506
2.2550	28.1608
2.2540	28.1838
2.2530	28.2121
2.2520	28.2453
2.2510	28.2790
2.2501	28.3056
2.2491	28.3349
2.2481	28.3779
2.2471	28.4291
2.2462	28.4789
2.2452	28.5168
2.2442	28.5390
2.2433	28.5517
2.2423	28.5607
2.2413	28.5820
2.2403	28.6178
2.2394	28.6537
2.2384	28.6791
2.2374	28.6857
2.2365	28.6742
2.2355	28.6564
2.2345	28.6393
2.2336	28.6271
2.2326	28.6115
2.2317	28.5783
2.2307	28.5243
2.2297	28.4540
2.2288	28.3796
2.2278	28.3146
2.2269	28.2646
2.2259	28.2236
2.2250	28.1818
2.2240	28.1293
2.2231	28.0641
2.2221	27.9941
2.2211	27.9272
2.2202	27.8627
2.2192	27.8051
2.2183	27.7531
2.2173	27.7060
2.2164	27.6596
2.2155	27.6095
2.2145	27.5590
2.2136	27.4968
2.2126	27.4076
2.2117	27.3061
2.2107	27.2099
2.2098	27.1364
2.2088	27.0964
2.2079	27.0961
2.2070	27.1415
2.2060	27.2118
2.2051	27.2831
2.2041	27.3527
2.2032	27.4145
2.2023	27.4611
2.2013	27.4958
2.2004	27.5275
2.1995	27.5656
2.1985	27.6159
2.1976	27.6774
2.1967	27.7472
2.1957	27.8195
2.1948	27.8886
2.1939	27.9579
2.1930	28.0258
2.1920	28.0876
2.1911	28.1525
2.1902	28.2258
2.1893	28.3036
2.1883	28.3827
2.1874	28.4584
2.1865	28.5307
2.1856	28.5939
2.1846	28.6423
2.1837	28.6857
2.1828	28.7336
2.1819	28.7902
2.1810	28.8512
2.1800	28.9098
2.1791	28.9633
2.1782	29.0016
2.1773	29.0168
2.1764	29.0143
2.1755	29.0090
2.1746	29.0112
2.1736	29.0246
2.1727	29.0502
2.1718	29.0883
2.1709	29.1249
2.1700	29.1520
2.1691	29.1764
2.1682	29.2052
2.1673	29.2345
2.1664	29.2553
2.1655	29.2660
2.1646	29.2736
2.1637	29.2763
2.1628	29.2782
2.1619	29.2839
2.1610	29.2907
2.1601	29.2931
2.1592	29.2883
2.1583	29.2792
2.1574	29.2800
2.1565	29.2939
2.1556	29.3141
2.1547	29.3276
2.1538	29.3300
2.1529	29.3290
2.1520	29.3339
2.1511	29.3505
2.1502	29.3884
2.1493	29.4452
2.1484	29.5009
2.1475	29.5407
2.1466	29.5602
2.1458	29.5619
2.1449	29.5549
2.1440	29.5468
2.1431	29.5475
2.1422	29.5595
2.1413	29.5705
2.1404	29.5785
2.1396	29.5812
2.1387	29.5729
2.1378	29.5590
2.1369	29.5475
2.1360	29.5431
2.1352	29.5502
2.1343	29.5634
2.1334	29.5795
2.1325	29.5932
2.1316	29.5983
2.1308	29.5939
2.1299	29.5817
2.1290	29.5646
2.1281	29.5505
2.1273	29.5356
2.1264	29.5214
2.1255	29.5170
2.1247	29.5363
2.1238	29.5795
2.1229	29.6303
2.1220	29.6752
2.1212	29.7035
2.1203	29.6984
2.1194	29.6611
2.1186	29.6076
2.1177	29.5632
2.1168	29.5380
2.1160	29.5246
2.1151	29.5260
2.1143	29.5419
2.1134	29.5719
2.1125	29.6164
2.1117	29.6591
2.1108	29.6955
2.1100	29.7177
2.1091	29.7165
2.1082	29.6974
2.1074	29.6759
2.1065	29.6759
2.1057	29.7004
2.1048	29.7358
2.1040	29.7795
2.1031	29.8229
2.1023	29.8544
2.1014	29.8613
2.1005	29.8478
2.0997	29.8222
2.0988	29.7892
2.0980	29.7658
2.0971	29.7660
2.0963	29.7909
2.0955	29.8337
2.0946	29.8742
2.0938	29.9023
2.0929	29.9147
2.0921	29.9164
2.0912	29.9155
2.0904	29.9191
2.0895	29.9272
2.0887	29.9360
2.0879	29.9391
2.0870	29.9404
2.0862	29.9391
2.0853	29.9267
2.0845	29.9277
2.0837	29.9040
2.0828	29.8774
2.0820	29.9443
2.0812	29.8476
2.0803	30.0307
2.0795	30.2934
2.0760	30.3293
2.0720	30.2103
2.0680	30.5521
2.0640	30.1746
2.0600	30.3118
2.0560	30.3288
2.0520	30.4622
2.0480	30.5993
2.0440	30.4651
2.0400	30.5337
2.0360	30.3105
2.0320	30.2765
2.0280	30.1736
2.0240	30.3789
2.0200	30.6411
2.0160	30.4124
2.0120	30.5336
2.0080	30.2552
2.0040	30.4640
2.0000	30.2945
1.9960	30.0855
1.9920	29.8387
1.9880	29.6495
1.9840	29.1581
1.9800	28.8983
1.9760	28.6670
1.9720	28.1697
1.9680	27.9975
1.9640	27.6820
1.9600	27.4788
1.9560	27.2421
1.9520	27.1582
1.9480	26.8873
1.9440	26.5491
1.9400	26.4191
1.9360	26.1050
1.9320	25.7370
1.9280	25.5479
1.9240	25.3777
1.9200	25.0042
1.9160	25.0653
1.9120	25.2853
1.9080	25.5630
1.9040	25.9348
1.9000	26.9814
1.8960	28.2833
1.8920	29.5910
1.8880	30.7501
1.8840	31.9476
1.8800	32.9171
1.8760	33.3189
1.8720	34.2253
1.8680	34.8791
1.8640	35.5060
1.8600	35.8964
1.8560	36.1457
1.8520	36.2313
1.8480	36.3522
1.8440	36.3464
1.8400	36.6986
1.8360	36.7888
1.8320	36.6214
1.8280	36.3883
1.8240	36.4434
1.8200	36.3515
1.8160	36.5471
1.8120	36.5055
1.8080	36.2931
1.8040	36.3758
1.8000	36.2487
1.7960	36.2281
1.7920	36.0396
1.7880	36.3107
1.7840	36.3315
1.7800	36.2042
1.7760	36.4299
1.7720	36.3005
1.7680	36.2216
1.7640	36.0041
1.7600	35.9796
1.7560	35.9135
1.7520	36.2184
1.7480	35.9800
1.7440	35.8455
1.7400	36.0528
1.7360	35.7460
1.7320	35.9099
1.7280	36.0833
1.7240	36.1875
1.7200	36.1701
1.7160	36.0941
1.7120	36.0497
1.7080	36.3107
1.7040	35.8412
1.7000	36.1423
1.6960	36.1766
1.6920	36.3730
1.6880	36.2798
1.6840	36.2143
1.6800	36.3865
1.6760	36.1389
1.6720	35.9068
1.6680	36.3562
1.6640	36.4847
1.6600	36.3898
1.6560	36.3354
1.6520	36.3354
1.6480	36.2315
1.6440	36.0094
1.6400	36.2107
1.6360	36.4942
1.6320	36.3237
1.6280	35.9799
1.6240	36.1538
1.6200	36.2903
1.6160	36.2071
1.6120	35.8359
1.6080	35.6363
1.6040	35.5844
1.6000	35.5726
1.5960	35.7012
1.5920	35.6600
1.5880	35.9174
1.5840	35.7219
1.5800	35.6049
1.5760	35.5465
1.5720	36.0630
1.5680	36.1924
1.5640	35.9246
1.5600	35.6137
1.5560	35.4441
1.5520	35.2547
1.5480	35.1386
1.5440	35.3887
1.5400	35.2131
1.5360	34.9562
1.5320	34.9158
1.5280	34.8078
1.5240	34.8884
1.5200	34.9895
1.5160	34.8423
1.5120	34.9620
1.5080	34.9620
1.5040	34.7257
1.5000	34.5827
1.4960	34.1339
1.4920	34.0827
1.4880	33.9135
1.4840	33.7643
1.4800	33.6250
1.4760	33.4161
1.4720	33.0984
1.4680	33.0187
1.4640	32.6904
1.4600	32.6002
1.4560	32.5568
1.4520	32.7050
1.4480	32.4488
1.4440	32.5112
1.4400	32.6078
1.4360	32.5778
1.4320	32.5003
1.4280	32.3318
1.4240	31.9773
1.4200	31.8640
1.4160	31.6024
1.4120	31.5689
1.4080	31.3745
1.4040	31.5764
1.4000	31.9783
1.3960	32.1797
1.3920	32.8376
1.3880	33.3084
1.3840	34.0709
1.3800	34.3652
1.3760	34.3676
1.3720	34.4235
1.3680	34.6217
1.3640	34.6369
1.3600	34.8056
1.3560	34.8681
1.3520	35.0428
1.3480	34.9323
1.3440	34.9800
1.3400	34.7095
1.3360	34.9730
1.3320	34.8336
1.3280	34.6938
1.3240	34.6938
1.3200	34.5826
1.3160	34.6232
1.3120	34.6639
1.3080	34.7251
1.3040	34.6836
1.3000	34.4812
1.2960	34.4305
1.2920	34.5948
1.2880	34.5359
1.2840	34.2359
1.2800	34.1445
1.2760	33.9676
1.2720	33.8049
1.2680	33.6468
1.2640	33.3346
1.2600	33.3056
1.2560	33.3056
1.2520	33.2071
1.2480	33.3728
1.2440	33.3968
1.2400	33.3565
1.2360	33.3968
1.2320	33.2081
1.2280	32.8247
1.2240	32.7301
1.2200	32.5368
1.2160	32.3248
1.2120	31.9059
1.2080	31.9444
1.2040	31.9479
1.2000	31.9095
1.1960	31.7611
1.1920	31.8139
1.1880	31.7305
1.1840	31.4964
1.1800	31.4588
1.1760	31.1808
1.1720	31.1623
1.1680	31.0310
1.1640	30.8420
1.1600	30.9305
1.1560	30.9008
1.1520	30.8770
1.1480	30.4996
1.1440	30.0292
1.1400	30.0894
1.1360	29.8300
1.1320	29.8235
1.1280	29.8054
1.1240	29.5316
1.1200	29.5289
1.1160	29.2561
1.1120	29.2695
1.1080	29.4649
1.1040	29.2561
1.1000	29.1178
1.0960	28.8176
1.0920	28.5035
1.0880	28.5538
1.0840	28.2847
1.0800	27.7337
1.0760	27.6687
1.0720	28.3697
1.0680	28.2073
1.0640	27.9213
1.0600	27.8563
1.0560	27.6399
1.0520	27.7597
1.0480	27.1883
1.0440	27.2554
1.0400	27.0051
1.0360	26.9049
1.0320	26.5897
1.0280	26.3866
1.0240	26.6709
1.0200	26.7707
1.0160	26.6145
1.0120	26.1771
1.0080	25.9085
1.0040	25.7046
1.0000	25.8014
0.9960	25.5381
0.9920	25.1980
0.9880	24.9399
0.9840	24.9004
0.9800	24.7892
0.9760	24.3721
0.9720	24.3721
0.9680	24.4164
0.9640	24.2736
0.9600	23.9171
0.9560	23.8108
0.9520	23.7372
0.9480	23.7958
0.9440	23.3913
0.9400	23.3762
0.9360	23.1524
0.9320	23.0186
0.9280	22.6886
0.9240	22.5138
0.9200	22.1913
0.9160	22.2618
0.9120	21.9481
0.9080	21.9086
0.9040	21.7268
0.9000	21.5582
0.8960	21.3527
0.8920	20.9934
0.8880	20.8530
0.8840	21.1048
0.8800	20.7608
0.8760	20.4266
0.8720	20.4608
0.8680	20.3404
0.8640	19.8883
0.8600	19.6304
0.8560	19.6843
0.8520	19.5600
0.8480	19.3763
0.8440	19.3826
0.8400	19.2594
0.8360	18.8663
0.8320	18.8663
0.8280	18.7217
0.8240	18.5591
0.8200	18.4228
0.8160	18.0875
0.8120	18.0370
0.8080	17.9265
0.8040	17.9549
0.8000	17.7437
0.7990	17.1288
0.7980	17.1297
0.7970	17.0805
0.7960	16.8697
0.7950	17.0552
0.7940	17.0043
0.7930	16.9193
0.7920	16.9692
0.7910	16.9069
0.7900	16.9817
0.7890	16.6009
0.7880	16.6887
0.7870	16.5535
0.7860	16.5764
0.7850	16.6146
0.7840	16.6165
0.7830	16.1612
0.7820	16.4308
0.7810	16.4430
0.7800	16.4308
0.7790	16.1379
0.7780	16.0512
0.7770	16.2228
0.7760	16.1984
0.7750	16.1499
0.7740	16.0151
0.7730	15.8924
0.7720	16.0151
0.7710	15.8685
0.7700	15.8566
0.7690	15.8210
0.7680	15.9197
0.7670	15.9049
0.7660	15.5475
0.7650	15.3017
0.7640	15.3773
0.7630	15.2713
0.7620	15.3133
0.7610	15.2902
0.7600	15.2902
0.7590	14.9786
0.7580	14.9084
0.7570	14.9084
0.7560	15.0430
0.7550	15.0315
0.7540	15.1006
0.7530	14.8764
0.7520	14.9414
0.7510	14.9644
0.7500	14.9529
0.7490	14.7869
0.7480	14.7820
0.7470	14.5121
0.7460	14.3123
0.7450	14.4896
0.7440	14.3912
0.7430	14.4135
0.7420	14.4471
0.7410	14.3346
0.7400	14.3098
0.7390	14.2117
0.7380	13.9162
0.7370	14.1314
0.7360	13.9493
0.7350	13.8835
0.7340	13.9381
0.7330	13.9162
0.7320	13.9022
0.7310	13.7163
0.7300	13.7783
0.7290	13.7239
0.7280	13.7456
0.7270	13.5896
0.7260	13.5198
0.7250	13.5090
0.7240	13.3253
0.7230	13.3680
0.7220	13.1555
0.7210	13.2117
0.7200	13.0769
0.7190	13.1977
0.7180	13.1977
0.7170	13.0730
0.7160	13.0366
0.7150	12.8805
0.7140	12.7720
0.7130	12.7926
0.7120	12.8493
0.7110	12.6416
0.7100	12.7035
0.7090	12.5476
0.7080	12.4864
0.7070	12.4126
0.7060	12.4126
0.7050	12.2979
0.7040	12.2979
0.7030	12.3281
0.7020	12.0879
0.7010	12.0978
0.7000	12.1078
0.6990	12.0978
0.6980	12.1454
0.6970	12.0228
0.6960	11.8401
0.6950	11.6267
0.6940	11.4602
0.6930	11.4602
0.6920	11.3812
0.6910	11.4991
0.6900	11.6365
0.6890	11.2711
0.6880	11.3812
0.6870	11.3909
0.6860	11.2440
0.6850	11.3330
0.6840	10.9419
0.6830	10.9606
0.6820	10.9983
0.6810	10.9459
0.6800	10.8176
0.6790	10.9270
0.6780	10.8988
0.6770	10.9440
0.6760	10.8444
0.6750	10.8160
0.6740	10.4786
0.6730	10.4786
0.6720	10.4786
0.6710	10.7350
0.6700	10.7444
0.6690	10.7538
0.6680	10.4783
0.6670	10.3867
0.6660	10.5247
0.6650	10.4866
0.6640	9.9684
0.6630	9.9684
0.6620	10.1481
0.6610	9.9509
0.6600	10.1672
0.6590	10.1293
0.6580	10.2949
0.6570	10.0375
0.6560	10.1015
0.6550	9.9631
0.6540	9.8818
0.6530	9.9088
0.6520	9.7980
0.6510	9.6426
0.6500	9.7090
0.6490	9.5537
0.6480	9.7356
0.6470	9.5897
0.6460	9.6913
0.6450	9.4513
0.6440	9.6603
0.6430	9.6514
0.6420	9.4790
0.6410	9.1798
0.6400	9.1628
0.6390	9.1458
0.6380	9.2701
0.6370	9.0772
0.6360	9.0079
0.6350	9.0673
0.6340	9.0673
0.6330	9.1794
0.6320	9.1880
0.6310	9.3325
0.6300	9.0472
0.6290	8.6712
0.6280	8.6383
0.6270	8.5973
0.6260	8.6468
0.6250	8.6798
0.6240	8.4932
0.6230	8.4608
0.6220	8.4689
0.6210	8.4128
0.6200	8.5127
0.6190	8.5045
0.6180	8.3806
0.6170	8.3806
0.6160	8.3725
0.6150	8.3645
0.6140	8.4473
0.6130	8.2120
0.6120	8.1660
0.6110	8.0678
0.6100	8.0600
0.6090	8.2244
0.6080	8.0757
0.6070	7.8266
0.6060	7.8420
0.6050	7.9325
0.6040	7.8806
0.6030	7.8815
0.6020	7.7753
0.6010	7.8298
0.6000	7.9086
0.5990	7.5843
0.5980	7.5895
0.5970	7.7534
0.5960	7.7534
0.5950	7.5586
0.5940	7.4335
0.5930	7.4031
0.5920	7.5216
0.5910	7.3965
0.5900	7.3537
0.5890	7.3386
0.5880	7.1087
0.5870	7.2259
0.5860	7.0786
0.5850	7.2561
0.5840	7.1457
0.5830	7.2410
0.5820	7.0205
0.5810	7.1234
0.5800	7.0500
0.5790	6.9240
0.5780	6.8652
0.5770	7.0059
0.5760	7.0786
0.5750	7.0786
0.5740	6.7636
0.5730	6.9318
0.5720	6.7264
0.5710	6.7054
0.5700	6.7264
0.5690	6.5169
0.5680	6.4137
0.5670	6.3950
0.5660	6.3390
0.5650	6.5407
0.5640	6.3341
0.5630	6.4112
0.5620	6.2954
0.5610	6.2316
0.5600	6.0966
0.5590	5.9659
0.5580	6.2295
0.5570	6.0540
0.5560	6.1972
0.5550	5.9602
0.5540	5.8225
0.5530	6.0168
0.5520	5.9162
0.5510	5.9476
0.5500	6.0001
0.5490	5.8991
0.5480	5.5087
0.5470	5.5680
0.5460	5.5991
0.5450	5.7081
0.5440	5.5991
0.5430	5.4658
0.5420	5.4235
0.5410	5.4528
0.5400	5.3251
0.5390	5.3738
0.5380	5.5145
0.5370	5.5145
0.5360	5.2152
0.5350	5.2152
0.5340	5.0693
0.5330	5.0519
0.5320	5.0519
0.5310	4.6381
0.5300	4.6435
0.5290	4.5208
0.5280	4.6961
0.5270	4.5678
0.5260	4.4018
0.5250	4.2542
0.5240	4.2854
0.5230	4.5623
0.5220	4.4085
0.5210	4.3115
0.5200	4.3011
0.5190	4.2646
0.5180	4.0184
0.5170	3.8951
0.5160	4.0234
0.5150	3.9200
0.5140	3.7814
0.5130	3.8468
0.5120	3.8370
0.5110	3.9300
0.5100	3.6700
0.5090	3.5372
0.5080	3.5512
0.5070	3.7765
0.5060	3.6431
0.5050	3.5052
0.5040	3.6528
0.5030	3.4414
0.5020	3.4833
0.5010	3.4600
0.5000	3.1146
0.4990	3.1059
0.4980	3.1190
0.4970	3.1102
0.4960	3.0359
0.4950	3.0530
0.4940	3.0487
0.4930	2.8735
0.4920	2.7452
0.4910	2.6669
0.4900	2.9901
0.4890	2.9279
0.4880	2.7109
0.4870	2.8068
0.4860	2.7109
0.4850	2.7189
0.4840	2.7189
0.4830	2.5172
0.4820	2.5134
0.4810	2.4369
0.4800	2.5172
0.4790	2.4294
0.4780	2.4331
0.4770	1.8531
0.4760	2.4556
0.4750	2.4556
0.4740	2.0258
0.4730	2.1067
0.4720	1.8500
0.4710	2.1266
0.4700	2.1233
0.4690	2.1133
0.4680	1.8500
0.4670	1.7715
0.4660	1.6354
0.4650	1.7715
0.4640	1.6049
0.4630	1.6956
0.4620	1.6985
0.4610	1.5390
0.4600	1.7950
0.4590	1.4751
0.4580	1.4928
0.4570	1.6162
0.4560	1.6028
0.4550	1.5949
0.4540	1.1920
0.4530	1.1647
0.4520	1.0736
0.4510	1.0074
0.4500	1.0937
0.4490	1.0263
0.4480	0.9280
0.4470	0.7511
0.4460	0.6747
0.4450	0.7748
0.4440	0.7592
0.4430	0.7592
0.4420	0.7686
0.4410	0.5157
0.4400	0.4374
0.4390	0.4323
0.4380	0.3496
0.4370	0.3473
0.4360	0.3496
0.4350	0.0056
0.4340	-0.1256
0.4330	0.0091
0.4320	-0.1623
0.4310	-0.1649
0.4300	0.0987
0.4290	0.0987
0.4280	-0.0750
0.4270	-0.0754
0.4260	-0.1648
0.4250	-0.1642
0.4240	-0.2509
0.4230	-0.5156
0.4220	-0.5160
0.4210	-0.6929
0.4200	-0.6944
0.4190	-0.6921
0.4180	-0.8686
0.4170	-1.0367
0.4160	-0.8594
0.4150	-0.8612
0.4140	-0.9483
0.4130	-1.1196
0.4120	-0.9887
0.4110	-1.0785
0.4100	-1.2978
0.4090	-1.1635
0.4080	-1.2106
0.4070	-1.3002
0.4060	-1.6482
0.4050	-1.5289
0.4040	-1.5355
0.4030	-1.5338
0.4020	-1.6206
0.4010	-1.7186
0.4000	-1.9432
