Name:  Very dark grayish brown loam
Type:  Soils
Class:  Mollisol
Subclass:  Cryoboroll
Particle Size:  see additional information
Sample No.:  87P4453
Owner:  JHU
Wavelength range:  All
Origin:  Wayne Co., Utah, via USDA Soil Conservation service.

Description:  Very dark grayish brown loam, (loamy-skeletal, mixed, typic).  
Physiography: plateaus or tablelands.




Measurement:  Directional (10 degree) hemispherical reflectance
First Column:  X
Second Column:  Y
X Units:  Wavelength (micrometers)
Y Units:  Reflectance (percent)
First X Value:  14.0112
Last X Value:  0.4000
Number of X Values:  2844
Additional information:  87P4453a.txt

14.0112	1.4458
13.9734	1.4604
13.9359	1.4492
13.8985	1.4380
13.8614	1.4341
13.8244	1.4463
13.7876	1.4622
13.7511	1.4866
13.7147	1.4963
13.6785	1.4980
13.6425	1.5010
13.6067	1.5266
13.5711	1.5559
13.5356	1.5723
13.5004	1.5796
13.4653	1.5859
13.4304	1.5747
13.3957	1.5618
13.3612	1.5574
13.3269	1.5696
13.2927	1.5769
13.2587	1.5815
13.2249	1.6028
13.1912	1.6228
13.1577	1.6294
13.1244	1.6348
13.0913	1.6313
13.0583	1.6267
13.0255	1.6230
12.9929	1.6392
12.9604	1.6753
12.9281	1.7092
12.8959	1.7371
12.8639	1.7581
12.8321	1.7595
12.8004	1.7522
12.7688	1.7363
12.7375	1.7100
12.7063	1.6775
12.6752	1.6509
12.6443	1.6401
12.6135	1.6523
12.5829	1.6702
12.5524	1.6912
12.5221	1.6987
12.4919	1.6838
12.4619	1.6528
12.4320	1.6208
12.4023	1.6035
12.3727	1.6062
12.3432	1.6140
12.3139	1.6311
12.2847	1.6558
12.2557	1.6914
12.2268	1.7371
12.1980	1.7937
12.1694	1.8520
12.1409	1.9036
12.1125	1.9438
12.0843	1.9785
12.0562	2.0049
12.0282	2.0364
12.0003	2.0747
11.9726	2.1143
11.9450	2.1423
11.9176	2.1660
11.8903	2.1963
11.8631	2.2339
11.8360	2.2659
11.8090	2.2978
11.7822	2.3393
11.7555	2.3889
11.7289	2.4246
11.7024	2.4480
11.6760	2.4641
11.6498	2.4751
11.6237	2.4824
11.5977	2.4844
11.5718	2.4910
11.5460	2.5149
11.5203	2.5305
11.4948	2.5400
11.4694	2.5464
11.4440	2.5513
11.4188	2.5640
11.3937	2.5796
11.3688	2.5915
11.3439	2.6172
11.3191	2.6401
11.2944	2.6540
11.2699	2.6577
11.2455	2.6616
11.2211	2.6694
11.1969	2.6716
11.1727	2.6704
11.1487	2.6804
11.1248	2.6941
11.1010	2.7046
11.0773	2.7117
11.0536	2.7258
11.0301	2.7390
11.0067	2.7414
10.9834	2.7339
10.9602	2.7263
10.9370	2.7161
10.9140	2.7031
10.8911	2.6916
10.8682	2.6853
10.8455	2.6811
10.8229	2.6787
10.8003	2.6770
10.7779	2.6816
10.7555	2.6804
10.7332	2.6777
10.7111	2.6750
10.6890	2.6802
10.6670	2.6973
10.6451	2.7175
10.6233	2.7383
10.6015	2.7646
10.5799	2.7830
10.5584	2.7993
10.5369	2.8142
10.5155	2.8374
10.4942	2.8650
10.4730	2.8906
10.4519	2.9141
10.4309	2.9521
10.4099	2.9946
10.3891	3.0356
10.3683	3.0674
10.3476	3.0957
10.3270	3.1296
10.3065	3.1755
10.2860	3.2256
10.2656	3.2849
10.2454	3.3481
10.2251	3.4160
10.2050	3.4790
10.1850	3.5388
10.1650	3.6023
10.1451	3.6753
10.1253	3.7436
10.1056	3.8169
10.0859	3.8972
10.0663	3.9905
10.0468	4.0915
10.0274	4.1836
10.0080	4.2590
9.9887	4.3369
9.9695	4.4053
9.9504	4.4658
9.9313	4.5163
9.9123	4.5676
9.8934	4.6089
9.8746	4.6311
9.8558	4.6453
9.8371	4.6680
9.8185	4.6902
9.7999	4.7248
9.7814	4.7861
9.7630	4.8747
9.7447	4.9682
9.7264	5.0661
9.7082	5.1675
9.6900	5.2551
9.6719	5.3235
9.6539	5.3928
9.6360	5.4597
9.6181	5.5181
9.6003	5.5727
9.5825	5.6260
9.5649	5.6553
9.5472	5.6628
9.5297	5.6489
9.5122	5.6213
9.4948	5.5835
9.4774	5.5359
9.4601	5.4905
9.4429	5.4485
9.4257	5.3931
9.4086	5.3384
9.3916	5.2822
9.3746	5.2302
9.3577	5.1882
9.3408	5.1467
9.3240	5.1099
9.3073	5.0710
9.2906	5.0171
9.2740	4.9460
9.2574	4.8628
9.2409	4.7676
9.2245	4.6743
9.2081	4.5954
9.1918	4.5354
9.1755	4.4868
9.1593	4.4341
9.1431	4.3862
9.1270	4.3415
9.1110	4.2881
9.0950	4.2390
9.0791	4.1943
9.0632	4.1509
9.0474	4.1028
9.0316	4.0527
9.0159	4.0207
9.0003	3.9968
8.9847	3.9895
8.9691	3.9961
8.9536	4.0093
8.9382	4.0173
8.9228	4.0029
8.9075	3.9819
8.8922	3.9714
8.8770	3.9514
8.8618	3.9360
8.8467	3.9172
8.8316	3.8996
8.8166	3.8757
8.8016	3.8381
8.7867	3.8049
8.7718	3.7861
8.7570	3.7615
8.7422	3.7349
8.7275	3.6987
8.7129	3.6599
8.6982	3.6079
8.6837	3.5293
8.6692	3.4270
8.6547	3.3301
8.6403	3.2580
8.6259	3.2173
8.6116	3.2244
8.5973	3.2886
8.5830	3.3660
8.5688	3.4304
8.5547	3.4665
8.5406	3.4817
8.5266	3.4758
8.5126	3.4575
8.4986	3.4475
8.4847	3.4482
8.4708	3.4387
8.4570	3.4297
8.4432	3.4246
8.4295	3.4250
8.4158	3.4260
8.4022	3.4248
8.3886	3.4192
8.3750	3.4148
8.3615	3.4082
8.3481	3.3970
8.3347	3.3872
8.3213	3.3889
8.3079	3.3843
8.2946	3.3613
8.2814	3.3323
8.2682	3.3096
8.2550	3.2788
8.2419	3.2336
8.2288	3.1875
8.2158	3.1484
8.2028	3.0940
8.1898	3.0254
8.1769	2.9558
8.1640	2.8823
8.1512	2.7937
8.1384	2.6985
8.1256	2.6072
8.1129	2.5266
8.1002	2.4443
8.0876	2.3696
8.0750	2.3049
8.0624	2.2436
8.0499	2.1816
8.0374	2.1164
8.0250	2.0559
8.0126	2.0144
8.0002	1.9822
7.9879	1.9578
7.9756	1.9341
7.9634	1.9080
7.9512	1.8733
7.9390	1.8328
7.9268	1.8032
7.9147	1.7825
7.9027	1.7612
7.8906	1.7429
7.8786	1.7239
7.8667	1.7012
7.8548	1.6772
7.8429	1.6609
7.8310	1.6536
7.8192	1.6479
7.8075	1.6443
7.7957	1.6455
7.7840	1.6494
7.7723	1.6558
7.7607	1.6587
7.7491	1.6558
7.7375	1.6506
7.7260	1.6489
7.7145	1.6460
7.7031	1.6440
7.6916	1.6523
7.6802	1.6628
7.6689	1.6636
7.6575	1.6572
7.6462	1.6431
7.6350	1.6282
7.6238	1.6177
7.6126	1.6094
7.6014	1.6096
7.5903	1.6150
7.5792	1.6199
7.5681	1.6260
7.5571	1.6218
7.5461	1.6167
7.5351	1.6150
7.5242	1.6089
7.5133	1.6016
7.5024	1.5984
7.4916	1.5967
7.4807	1.5972
7.4700	1.5967
7.4592	1.5935
7.4485	1.5933
7.4378	1.5998
7.4272	1.6028
7.4165	1.6116
7.4059	1.6255
7.3954	1.6345
7.3848	1.6367
7.3743	1.6299
7.3639	1.6213
7.3534	1.6165
7.3430	1.6030
7.3326	1.5986
7.3223	1.6013
7.3119	1.6047
7.3016	1.6064
7.2914	1.6055
7.2811	1.6025
7.2709	1.5994
7.2607	1.5925
7.2506	1.5940
7.2404	1.5896
7.2303	1.5874
7.2203	1.5920
7.2102	1.6016
7.2002	1.6118
7.1902	1.6223
7.1803	1.6362
7.1703	1.6504
7.1604	1.6528
7.1506	1.6536
7.1407	1.6553
7.1309	1.6592
7.1211	1.6553
7.1113	1.6465
7.1016	1.6401
7.0919	1.6414
7.0822	1.6445
7.0725	1.6467
7.0629	1.6477
7.0533	1.6499
7.0437	1.6492
7.0341	1.6543
7.0246	1.6631
7.0151	1.6792
7.0056	1.6975
6.9962	1.7078
6.9867	1.7087
6.9773	1.7129
6.9679	1.7222
6.9586	1.7436
6.9493	1.7688
6.9400	1.7961
6.9307	1.8271
6.9214	1.8486
6.9122	1.8606
6.9030	1.8716
6.8938	1.8748
6.8847	1.8791
6.8755	1.8926
6.8664	1.9131
6.8573	1.9387
6.8483	1.9705
6.8393	2.0088
6.8302	2.0454
6.8213	2.0737
6.8123	2.1018
6.8034	2.1404
6.7944	2.1870
6.7855	2.2383
6.7767	2.2971
6.7678	2.3557
6.7590	2.4065
6.7502	2.4468
6.7414	2.4736
6.7327	2.4893
6.7239	2.5037
6.7152	2.5156
6.7065	2.5183
6.6979	2.5144
6.6892	2.5088
6.6806	2.5100
6.6720	2.5107
6.6634	2.4910
6.6549	2.4592
6.6464	2.4319
6.6378	2.4018
6.6294	2.3721
6.6209	2.3486
6.6124	2.3403
6.6040	2.3315
6.5956	2.3018
6.5872	2.2664
6.5789	2.2410
6.5705	2.2222
6.5622	2.2078
6.5539	2.2021
6.5456	2.2031
6.5374	2.2046
6.5292	2.1985
6.5209	2.1789
6.5128	2.1489
6.5046	2.1228
6.4964	2.1033
6.4883	2.0942
6.4802	2.0974
6.4721	2.1094
6.4640	2.1133
6.4560	2.1091
6.4480	2.1064
6.4399	2.0959
6.4320	2.0774
6.4240	2.0618
6.4160	2.0547
6.4081	2.0518
6.4002	2.0393
6.3923	2.0300
6.3844	2.0354
6.3766	2.0320
6.3687	2.0168
6.3609	2.0024
6.3531	1.9932
6.3454	1.9822
6.3376	1.9631
6.3299	1.9419
6.3221	1.9287
6.3144	1.9175
6.3068	1.9021
6.2991	1.8835
6.2914	1.8628
6.2838	1.8437
6.2762	1.8230
6.2686	1.7974
6.2611	1.7766
6.2535	1.7664
6.2460	1.7573
6.2385	1.7380
6.2310	1.7173
6.2235	1.7029
6.2160	1.6841
6.2086	1.6611
6.2011	1.6399
6.1937	1.6265
6.1863	1.6143
6.1790	1.5996
6.1716	1.5906
6.1643	1.5886
6.1570	1.5894
6.1496	1.5859
6.1424	1.5747
6.1351	1.5608
6.1278	1.5459
6.1206	1.5383
6.1134	1.5344
6.1062	1.5349
6.0990	1.5403
6.0918	1.5435
6.0847	1.5430
6.0776	1.5386
6.0704	1.5205
6.0633	1.5068
6.0563	1.5051
6.0492	1.5129
6.0421	1.5293
6.0351	1.5476
6.0281	1.5693
6.0211	1.5913
6.0141	1.5964
6.0071	1.6011
6.0002	1.6182
5.9932	1.6423
5.9863	1.6689
5.9794	1.6926
5.9725	1.7190
5.9657	1.7532
5.9588	1.7786
5.9520	1.7988
5.9451	1.8259
5.9383	1.8606
5.9315	1.9048
5.9247	1.9595
5.9180	2.0117
5.9112	2.0684
5.9045	2.1191
5.8978	2.1619
5.8911	2.2107
5.8844	2.2673
5.8777	2.3364
5.8711	2.4170
5.8644	2.4905
5.8578	2.5632
5.8512	2.6294
5.8446	2.6763
5.8380	2.7170
5.8314	2.7622
5.8249	2.8137
5.8184	2.8787
5.8118	2.9531
5.8053	3.0300
5.7988	3.1030
5.7923	3.1658
5.7859	3.2129
5.7794	3.2595
5.7730	3.3147
5.7666	3.3791
5.7602	3.4536
5.7538	3.5371
5.7474	3.6311
5.7410	3.7312
5.7347	3.8201
5.7283	3.9084
5.7220	4.0066
5.7157	4.1055
5.7094	4.2014
5.7031	4.3030
5.6969	4.4099
5.6906	4.5156
5.6844	4.6174
5.6782	4.7102
5.6719	4.7939
5.6657	4.8660
5.6596	4.9177
5.6534	4.9629
5.6472	5.0146
5.6411	5.0788
5.6349	5.1526
5.6288	5.2292
5.6227	5.3039
5.6166	5.3786
5.6106	5.4492
5.6045	5.5190
5.5984	5.5911
5.5924	5.6645
5.5864	5.7378
5.5804	5.8120
5.5744	5.8882
5.5684	5.9731
5.5624	6.0669
5.5564	6.1621
5.5505	6.2544
5.5445	6.3391
5.5386	6.4184
5.5327	6.5002
5.5268	6.5879
5.5209	6.6741
5.5151	6.7544
5.5092	6.8296
5.5033	6.9065
5.4975	6.9753
5.4917	7.0390
5.4859	7.1040
5.4801	7.1609
5.4743	7.2141
5.4685	7.2683
5.4628	7.3227
5.4570	7.3830
5.4513	7.4431
5.4455	7.5007
5.4398	7.5307
5.4341	7.5290
5.4284	7.5232
5.4228	7.5141
5.4171	7.4951
5.4114	7.4690
5.4058	7.4407
5.4002	7.4077
5.3945	7.3511
5.3889	7.2827
5.3833	7.2226
5.3778	7.1699
5.3722	7.1191
5.3666	7.0725
5.3611	7.0437
5.3555	7.0403
5.3500	7.0500
5.3445	7.0713
5.3390	7.1067
5.3335	7.1528
5.3280	7.2016
5.3225	7.2478
5.3171	7.2956
5.3116	7.3481
5.3062	7.3943
5.3008	7.4394
5.2954	7.4907
5.2900	7.5495
5.2846	7.6206
5.2792	7.7026
5.2738	7.7898
5.2684	7.8816
5.2631	7.9763
5.2578	8.0740
5.2524	8.1733
5.2471	8.2805
5.2418	8.3979
5.2365	8.5205
5.2312	8.6379
5.2260	8.7485
5.2207	8.8489
5.2154	8.9314
5.2102	9.0005
5.2050	9.0654
5.1998	9.1255
5.1945	9.1794
5.1893	9.2229
5.1842	9.2629
5.1790	9.3020
5.1738	9.3320
5.1686	9.3574
5.1635	9.3781
5.1584	9.4001
5.1532	9.4240
5.1481	9.4490
5.1430	9.4804
5.1379	9.5180
5.1328	9.5549
5.1277	9.5927
5.1227	9.6313
5.1176	9.6689
5.1126	9.7009
5.1075	9.7287
5.1025	9.7514
5.0975	9.7661
5.0925	9.7739
5.0875	9.7785
5.0825	9.7881
5.0775	9.7990
5.0726	9.8113
5.0676	9.8310
5.0627	9.8584
5.0577	9.8874
5.0528	9.9162
5.0479	9.9453
5.0430	9.9802
5.0380	10.0071
5.0332	10.0205
5.0283	10.0305
5.0234	10.0429
5.0185	10.0564
5.0137	10.0752
5.0088	10.1059
5.0040	10.1504
4.9992	10.1968
4.9944	10.2402
4.9896	10.2910
4.9848	10.3484
4.9800	10.4111
4.9752	10.4839
4.9704	10.5644
4.9657	10.6516
4.9609	10.7348
4.9562	10.8076
4.9514	10.8769
4.9467	10.9377
4.9420	10.9880
4.9373	11.0315
4.9326	11.0710
4.9279	11.1133
4.9232	11.1631
4.9186	11.2263
4.9139	11.3091
4.9092	11.4011
4.9046	11.5000
4.9000	11.5967
4.8953	11.6833
4.8907	11.7610
4.8861	11.8349
4.8815	11.9028
4.8769	11.9636
4.8723	12.0168
4.8678	12.0695
4.8632	12.1194
4.8586	12.1579
4.8541	12.1926
4.8495	12.2341
4.8450	12.2746
4.8405	12.3142
4.8360	12.3476
4.8315	12.3774
4.8270	12.4101
4.8225	12.4358
4.8180	12.4546
4.8135	12.4785
4.8090	12.4995
4.8046	12.5190
4.8001	12.5368
4.7957	12.5578
4.7913	12.5891
4.7868	12.6208
4.7824	12.6445
4.7780	12.6689
4.7736	12.6877
4.7692	12.7050
4.7648	12.7265
4.7605	12.7505
4.7561	12.7736
4.7517	12.7968
4.7474	12.8164
4.7431	12.8337
4.7387	12.8464
4.7344	12.8571
4.7301	12.8737
4.7258	12.8903
4.7215	12.9052
4.7172	12.9257
4.7129	12.9489
4.7086	12.9687
4.7043	12.9814
4.7000	12.9863
4.6958	12.9970
4.6915	13.0085
4.6873	13.0183
4.6831	13.0354
4.6788	13.0656
4.6746	13.1023
4.6704	13.1379
4.6662	13.1728
4.6620	13.2131
4.6578	13.2519
4.6536	13.2871
4.6495	13.3205
4.6453	13.3596
4.6411	13.3986
4.6370	13.4336
4.6328	13.4687
4.6287	13.5090
4.6246	13.5561
4.6205	13.6047
4.6163	13.6482
4.6122	13.6921
4.6081	13.7312
4.6040	13.7683
4.6000	13.8081
4.5959	13.8476
4.5918	13.8860
4.5877	13.9243
4.5837	13.9609
4.5796	13.9943
4.5756	14.0258
4.5716	14.0603
4.5675	14.1008
4.5635	14.1408
4.5595	14.1797
4.5555	14.2212
4.5515	14.2551
4.5475	14.2778
4.5435	14.2964
4.5395	14.3151
4.5356	14.3420
4.5316	14.3693
4.5276	14.3964
4.5237	14.4248
4.5197	14.4394
4.5158	14.4465
4.5119	14.4536
4.5080	14.4636
4.5040	14.4751
4.5001	14.4870
4.4962	14.5075
4.4923	14.5263
4.4884	14.5407
4.4846	14.5637
4.4807	14.5864
4.4768	14.6079
4.4730	14.6318
4.4691	14.6599
4.4652	14.6967
4.4614	14.7309
4.4576	14.7644
4.4537	14.8010
4.4499	14.8371
4.4461	14.8725
4.4423	14.9055
4.4385	14.9392
4.4347	14.9746
4.4309	15.0044
4.4271	15.0305
4.4233	15.0637
4.4196	15.0964
4.4158	15.1252
4.4120	15.1611
4.4083	15.2024
4.4045	15.2412
4.4008	15.2763
4.3971	15.3127
4.3934	15.3449
4.3896	15.3623
4.3859	15.3835
4.3822	15.4204
4.3785	15.4577
4.3748	15.4936
4.3711	15.5300
4.3674	15.5698
4.3638	15.6020
4.3601	15.6259
4.3564	15.6555
4.3528	15.6867
4.3491	15.7155
4.3455	15.7429
4.3418	15.7695
4.3382	15.7973
4.3346	15.8122
4.3310	15.8139
4.3273	15.8178
4.3237	15.8244
4.3201	15.8359
4.3165	15.8569
4.3129	15.8791
4.3094	15.8942
4.3058	15.9008
4.3022	15.9087
4.2986	15.9228
4.2951	15.9294
4.2915	15.9296
4.2880	15.9392
4.2844	15.9511
4.2809	15.9582
4.2774	15.9692
4.2738	15.9921
4.2703	16.0200
4.2668	16.0376
4.2633	16.0517
4.2598	16.0752
4.2563	16.0979
4.2528	16.1091
4.2493	16.1135
4.2458	16.1086
4.2424	16.1003
4.2389	16.0971
4.2354	16.1020
4.2320	16.1135
4.2285	16.1311
4.2251	16.1489
4.2216	16.1657
4.2182	16.1740
4.2148	16.1860
4.2113	16.2033
4.2079	16.2150
4.2045	16.2309
4.2011	16.2470
4.1977	16.2546
4.1943	16.2617
4.1909	16.2651
4.1875	16.2670
4.1841	16.2710
4.1808	16.2700
4.1774	16.2768
4.1740	16.2844
4.1707	16.2866
4.1673	16.2912
4.1640	16.2856
4.1606	16.2702
4.1573	16.2590
4.1540	16.2456
4.1506	16.2331
4.1473	16.2275
4.1440	16.2258
4.1407	16.2326
4.1374	16.2365
4.1341	16.2302
4.1308	16.2199
4.1275	16.2148
4.1242	16.2133
4.1209	16.2128
4.1177	16.2104
4.1144	16.2063
4.1111	16.1955
4.1079	16.1728
4.1046	16.1442
4.1014	16.1237
4.0981	16.1115
4.0949	16.1047
4.0917	16.0998
4.0884	16.0925
4.0852	16.0830
4.0820	16.0727
4.0788	16.0605
4.0756	16.0490
4.0724	16.0358
4.0692	16.0239
4.0660	16.0136
4.0628	15.9980
4.0596	15.9773
4.0565	15.9594
4.0533	15.9499
4.0501	15.9401
4.0470	15.9165
4.0438	15.8940
4.0406	15.8742
4.0375	15.8535
4.0344	15.8357
4.0312	15.8252
4.0281	15.8225
4.0250	15.8125
4.0218	15.7922
4.0187	15.7707
4.0156	15.7468
4.0125	15.7258
4.0094	15.7070
4.0063	15.6887
4.0032	15.6726
4.0001	15.6557
3.9970	15.6325
3.9940	15.6074
3.9909	15.5842
3.9878	15.5634
3.9847	15.5500
3.9817	15.5388
3.9786	15.5244
3.9756	15.5031
3.9725	15.4729
3.9695	15.4462
3.9665	15.4245
3.9634	15.4113
3.9604	15.4091
3.9574	15.4055
3.9544	15.3967
3.9513	15.3820
3.9483	15.3652
3.9453	15.3454
3.9423	15.3237
3.9393	15.3049
3.9363	15.2795
3.9333	15.2412
3.9304	15.2016
3.9274	15.1648
3.9244	15.1281
3.9214	15.0893
3.9185	15.0610
3.9155	15.0446
3.9126	15.0317
3.9096	15.0139
3.9067	14.9948
3.9037	14.9760
3.9008	14.9448
3.8979	14.9069
3.8949	14.8762
3.8920	14.8488
3.8891	14.8213
3.8862	14.7959
3.8833	14.7758
3.8804	14.7570
3.8775	14.7282
3.8746	14.6980
3.8717	14.6638
3.8688	14.6259
3.8659	14.5859
3.8630	14.5517
3.8601	14.5224
3.8573	14.4909
3.8544	14.4607
3.8515	14.4248
3.8487	14.3833
3.8458	14.3452
3.8430	14.3093
3.8401	14.2744
3.8373	14.2395
3.8344	14.2014
3.8316	14.1618
3.8288	14.1145
3.8259	14.0715
3.8231	14.0332
3.8203	13.9924
3.8175	13.9497
3.8147	13.9123
3.8119	13.8720
3.8091	13.8283
3.8063	13.7924
3.8035	13.7636
3.8007	13.7280
3.7979	13.6845
3.7951	13.6411
3.7924	13.5969
3.7896	13.5412
3.7868	13.4860
3.7841	13.4392
3.7813	13.3974
3.7785	13.3525
3.7758	13.3069
3.7730	13.2651
3.7703	13.2151
3.7676	13.1591
3.7648	13.1074
3.7621	13.0612
3.7594	13.0229
3.7566	12.9826
3.7539	12.9406
3.7512	12.9062
3.7485	12.8679
3.7458	12.8210
3.7431	12.7678
3.7404	12.7192
3.7377	12.6694
3.7350	12.6157
3.7323	12.5727
3.7296	12.5412
3.7269	12.5005
3.7242	12.4511
3.7216	12.3969
3.7189	12.3357
3.7162	12.2773
3.7136	12.2346
3.7109	12.2019
3.7083	12.1667
3.7056	12.1233
3.7030	12.0749
3.7003	12.0193
3.6977	11.9585
3.6950	11.9087
3.6924	11.8703
3.6898	11.8362
3.6872	11.8005
3.6845	11.7595
3.6819	11.7041
3.6793	11.6382
3.6767	11.5771
3.6741	11.5217
3.6715	11.4721
3.6689	11.4297
3.6663	11.3943
3.6637	11.3596
3.6611	11.3166
3.6585	11.2705
3.6560	11.2295
3.6534	11.1877
3.6508	11.1430
3.6482	11.0962
3.6457	11.0559
3.6431	11.0144
3.6406	10.9675
3.6380	10.9211
3.6355	10.8728
3.6329	10.8186
3.6304	10.7693
3.6278	10.7260
3.6253	10.6816
3.6227	10.6333
3.6202	10.5903
3.6177	10.5517
3.6152	10.5071
3.6127	10.4592
3.6101	10.4197
3.6076	10.3774
3.6051	10.3254
3.6026	10.2646
3.6001	10.2082
3.5976	10.1496
3.5951	10.0840
3.5926	10.0251
3.5901	9.9826
3.5876	9.9438
3.5852	9.9057
3.5827	9.8667
3.5802	9.8183
3.5777	9.7480
3.5753	9.6684
3.5728	9.5993
3.5704	9.5405
3.5679	9.4819
3.5654	9.4287
3.5630	9.3799
3.5605	9.3237
3.5581	9.2561
3.5557	9.1897
3.5532	9.1279
3.5508	9.0674
3.5484	9.0010
3.5459	8.9304
3.5435	8.8620
3.5411	8.7947
3.5387	8.7329
3.5363	8.6728
3.5338	8.6125
3.5314	8.5488
3.5290	8.4680
3.5266	8.3699
3.5242	8.2583
3.5218	8.1306
3.5195	7.9961
3.5171	7.8457
3.5147	7.6814
3.5123	7.5110
3.5099	7.3554
3.5075	7.2383
3.5052	7.1636
3.5028	7.1335
3.5004	7.1443
3.4981	7.1706
3.4957	7.1929
3.4934	7.1968
3.4910	7.1824
3.4887	7.1589
3.4863	7.1301
3.4840	7.0993
3.4816	7.0654
3.4793	7.0283
3.4770	6.9922
3.4746	6.9521
3.4723	6.9075
3.4700	6.8725
3.4677	6.8454
3.4653	6.8164
3.4630	6.7822
3.4607	6.7370
3.4584	6.6885
3.4561	6.6438
3.4538	6.5930
3.4515	6.5408
3.4492	6.4817
3.4469	6.4126
3.4446	6.3457
3.4423	6.2773
3.4400	6.2075
3.4378	6.1394
3.4355	6.0637
3.4332	5.9795
3.4309	5.8786
3.4287	5.7666
3.4264	5.6753
3.4241	5.6101
3.4219	5.5657
3.4196	5.5390
3.4174	5.5351
3.4151	5.5412
3.4129	5.5378
3.4106	5.5373
3.4084	5.5495
3.4061	5.5581
3.4039	5.5625
3.4017	5.5666
3.3994	5.5754
3.3972	5.5884
3.3950	5.6074
3.3928	5.6304
3.3906	5.6484
3.3883	5.6584
3.3861	5.6619
3.3839	5.6670
3.3817	5.6714
3.3795	5.6709
3.3773	5.6714
3.3751	5.6653
3.3729	5.6575
3.3707	5.6633
3.3685	5.6765
3.3663	5.6960
3.3641	5.7185
3.3620	5.7322
3.3598	5.7366
3.3576	5.7363
3.3554	5.7419
3.3533	5.7493
3.3511	5.7400
3.3489	5.7297
3.3468	5.7180
3.3446	5.7012
3.3425	5.6843
3.3403	5.6789
3.3382	5.6846
3.3360	5.6850
3.3339	5.6753
3.3317	5.6702
3.3296	5.6560
3.3274	5.6352
3.3253	5.6113
3.3232	5.5788
3.3210	5.5430
3.3189	5.5124
3.3168	5.4873
3.3147	5.4665
3.3126	5.4433
3.3104	5.4324
3.3083	5.4150
3.3062	5.3760
3.3041	5.3352
3.3020	5.3039
3.2999	5.2746
3.2978	5.2407
3.2957	5.2029
3.2936	5.1780
3.2915	5.1477
3.2894	5.1125
3.2874	5.0806
3.2853	5.0535
3.2832	5.0256
3.2811	4.9917
3.2790	4.9548
3.2770	4.9314
3.2749	4.9060
3.2728	4.8713
3.2708	4.8310
3.2687	4.8003
3.2666	4.7734
3.2646	4.7417
3.2625	4.7087
3.2605	4.6912
3.2584	4.6709
3.2564	4.6348
3.2543	4.5998
3.2523	4.5725
3.2503	4.5430
3.2482	4.5112
3.2462	4.4890
3.2442	4.4783
3.2421	4.4636
3.2401	4.4375
3.2381	4.4018
3.2361	4.3625
3.2340	4.3269
3.2320	4.2995
3.2300	4.2803
3.2280	4.2712
3.2260	4.2651
3.2240	4.2524
3.2220	4.2307
3.2200	4.2058
3.2180	4.1853
3.2160	4.1702
3.2140	4.1504
3.2120	4.1272
3.2100	4.0962
3.2080	4.0547
3.2060	4.0161
3.2040	3.9839
3.2021	3.9575
3.2001	3.9416
3.1981	3.9263
3.1961	3.9094
3.1942	3.8828
3.1922	3.8581
3.1902	3.8381
3.1883	3.8122
3.1863	3.7739
3.1844	3.7378
3.1824	3.7060
3.1805	3.6826
3.1785	3.6638
3.1766	3.6516
3.1746	3.6372
3.1727	3.6155
3.1707	3.5862
3.1688	3.5583
3.1669	3.5278
3.1649	3.5049
3.1630	3.4922
3.1611	3.4736
3.1591	3.4482
3.1572	3.4289
3.1553	3.4182
3.1534	3.4040
3.1515	3.3904
3.1495	3.3865
3.1476	3.3708
3.1457	3.3425
3.1438	3.3149
3.1419	3.3008
3.1400	3.2949
3.1381	3.2837
3.1362	3.2707
3.1343	3.2559
3.1324	3.2256
3.1305	3.1960
3.1286	3.1743
3.1268	3.1626
3.1249	3.1506
3.1230	3.1335
3.1211	3.1152
3.1192	3.0986
3.1174	3.0806
3.1155	3.0632
3.1136	3.0488
3.1117	3.0376
3.1099	3.0239
3.1080	3.0090
3.1061	2.9878
3.1043	2.9685
3.1024	2.9585
3.1006	2.9546
3.0987	2.9495
3.0969	2.9355
3.0950	2.9121
3.0932	2.8962
3.0913	2.8899
3.0895	2.8823
3.0876	2.8721
3.0858	2.8591
3.0840	2.8408
3.0821	2.8098
3.0803	2.7737
3.0785	2.7649
3.0766	2.7756
3.0748	2.7783
3.0730	2.7754
3.0712	2.7798
3.0694	2.7837
3.0675	2.7778
3.0657	2.7715
3.0639	2.7756
3.0621	2.7725
3.0603	2.7598
3.0585	2.7388
3.0567	2.7178
3.0549	2.6951
3.0531	2.6775
3.0513	2.6741
3.0495	2.6853
3.0477	2.7009
3.0459	2.7031
3.0441	2.6860
3.0423	2.6650
3.0406	2.6421
3.0388	2.6238
3.0370	2.6084
3.0352	2.6018
3.0334	2.6060
3.0317	2.6108
3.0299	2.6204
3.0281	2.6294
3.0264	2.6313
3.0246	2.6333
3.0228	2.6199
3.0211	2.6023
3.0193	2.5864
3.0176	2.5701
3.0158	2.5583
3.0140	2.5493
3.0123	2.5513
3.0105	2.5637
3.0088	2.5627
3.0070	2.5581
3.0053	2.5579
3.0036	2.5557
3.0018	2.5503
3.0001	2.5469
2.9984	2.5393
2.9966	2.5303
2.9949	2.5156
2.9932	2.5019
2.9914	2.4954
2.9897	2.4954
2.9880	2.4919
2.9863	2.4824
2.9845	2.4612
2.9828	2.4497
2.9811	2.4553
2.9794	2.4624
2.9777	2.4602
2.9760	2.4563
2.9743	2.4402
2.9726	2.4148
2.9709	2.3918
2.9692	2.3855
2.9675	2.3943
2.9658	2.4092
2.9641	2.4297
2.9624	2.4409
2.9607	2.4268
2.9590	2.4111
2.9573	2.4048
2.9556	2.4006
2.9539	2.3894
2.9523	2.3935
2.9506	2.4077
2.9489	2.4050
2.9472	2.3892
2.9455	2.3777
2.9439	2.3796
2.9422	2.3743
2.9405	2.3567
2.9389	2.3564
2.9372	2.3684
2.9355	2.3818
2.9339	2.3970
2.9322	2.4072
2.9306	2.4160
2.9289	2.4133
2.9272	2.3931
2.9256	2.3811
2.9239	2.3801
2.9223	2.3772
2.9207	2.3804
2.9190	2.3774
2.9174	2.3765
2.9157	2.3784
2.9141	2.3733
2.9124	2.3855
2.9108	2.4053
2.9092	2.4182
2.9075	2.4360
2.9059	2.4443
2.9043	2.4456
2.9027	2.4353
2.9010	2.4167
2.8994	2.4018
2.8978	2.3826
2.8962	2.3713
2.8946	2.3689
2.8929	2.3743
2.8913	2.3901
2.8897	2.4145
2.8881	2.4360
2.8865	2.4539
2.8849	2.4653
2.8833	2.4778
2.8817	2.4917
2.8801	2.5107
2.8785	2.5232
2.8769	2.5217
2.8753	2.5000
2.8737	2.4812
2.8721	2.4700
2.8705	2.4534
2.8689	2.4456
2.8673	2.4539
2.8658	2.4661
2.8642	2.4739
2.8626	2.4753
2.8610	2.5007
2.8594	2.5273
2.8579	2.5271
2.8563	2.5281
2.8547	2.5349
2.8531	2.5413
2.8516	2.5417
2.8500	2.5439
2.8484	2.5657
2.8469	2.5806
2.8453	2.5857
2.8437	2.5969
2.8422	2.6033
2.8406	2.6045
2.8391	2.6025
2.8375	2.5952
2.8360	2.5764
2.8344	2.5525
2.8329	2.5388
2.8313	2.5364
2.8298	2.5417
2.8282	2.5518
2.8267	2.5754
2.8252	2.6069
2.8236	2.6269
2.8221	2.6284
2.8205	2.6274
2.8190	2.6328
2.8175	2.6269
2.8159	2.6099
2.8144	2.6077
2.8129	2.6189
2.8114	2.6186
2.8098	2.6023
2.8083	2.6011
2.8068	2.6189
2.8053	2.6306
2.8038	2.6338
2.8022	2.6457
2.8007	2.6526
2.7992	2.6514
2.7977	2.6599
2.7962	2.6672
2.7947	2.6667
2.7932	2.6721
2.7917	2.6702
2.7902	2.6555
2.7887	2.6404
2.7872	2.6372
2.7857	2.6306
2.7842	2.6055
2.7827	2.5881
2.7812	2.6084
2.7797	2.6252
2.7782	2.6216
2.7767	2.6221
2.7752	2.6155
2.7738	2.5837
2.7723	2.5510
2.7708	2.5320
2.7693	2.5251
2.7678	2.5102
2.7664	2.4665
2.7649	2.4092
2.7634	2.3540
2.7619	2.3164
2.7605	2.3052
2.7590	2.3223
2.7575	2.3528
2.7561	2.3992
2.7546	2.4358
2.7531	2.4595
2.7517	2.4914
2.7502	2.5271
2.7488	2.5613
2.7473	2.5991
2.7458	2.6489
2.7444	2.7129
2.7429	2.7639
2.7415	2.7976
2.7400	2.8430
2.7386	2.8960
2.7371	2.9538
2.7357	3.0188
2.7343	3.1042
2.7328	3.1926
2.7314	3.2666
2.7299	3.3335
2.7285	3.4067
2.7271	3.4856
2.7256	3.5703
2.7242	3.6511
2.7228	3.7390
2.7213	3.8398
2.7199	3.9543
2.7185	4.0742
2.7171	4.1863
2.7156	4.2778
2.7142	4.3420
2.7128	4.3528
2.7114	4.3179
2.7100	4.2737
2.7085	4.2517
2.7071	4.2583
2.7057	4.3010
2.7043	4.3828
2.7029	4.5276
2.7015	4.7322
2.7001	4.9971
2.6987	5.3335
2.6973	5.7527
2.6959	6.2702
2.6945	6.8950
2.6931	7.6162
2.6917	8.4316
2.6903	9.3269
2.6889	10.2585
2.6875	11.1677
2.6861	12.0437
2.6847	12.8794
2.6833	13.6189
2.6819	14.2566
2.6805	14.7937
2.6791	15.2597
2.6778	15.7004
2.6764	16.1530
2.6750	16.5654
2.6736	16.9074
2.6722	17.2199
2.6709	17.4956
2.6695	17.7158
2.6681	17.9194
2.6667	18.2014
2.6654	18.5500
2.6640	18.8591
2.6626	19.1301
2.6613	19.4458
2.6599	19.7248
2.6585	19.9409
2.6572	20.0996
2.6558	20.2480
2.6545	20.3903
2.6531	20.5195
2.6517	20.6503
2.6504	20.8115
2.6490	20.9606
2.6477	21.0988
2.6463	21.2084
2.6450	21.3066
2.6436	21.4016
2.6423	21.4982
2.6409	21.6225
2.6396	21.7641
2.6382	21.8732
2.6369	21.9775
2.6356	22.0666
2.6342	22.0898
2.6329	22.0798
2.6315	22.0820
2.6302	22.0876
2.6289	22.1469
2.6275	22.2392
2.6262	22.3832
2.6249	22.5197
2.6236	22.5646
2.6222	22.6113
2.6209	22.6279
2.6196	22.5883
2.6183	22.6005
2.6169	22.6635
2.6156	22.7795
2.6143	22.8984
2.6130	22.9811
2.6117	23.0788
2.6103	23.1201
2.6090	23.0673
2.6077	22.9951
2.6064	22.9487
2.6051	22.9601
2.6038	23.0217
2.6025	23.1320
2.6012	23.2895
2.5999	23.3898
2.5986	23.2917
2.5973	23.1032
2.5960	22.9711
2.5947	22.9445
2.5934	23.0146
2.5921	23.1679
2.5908	23.3559
2.5895	23.5131
2.5882	23.5287
2.5869	23.4643
2.5856	23.4333
2.5843	23.4316
2.5830	23.4814
2.5817	23.5534
2.5805	23.5947
2.5792	23.6589
2.5779	23.6938
2.5766	23.6650
2.5753	23.6494
2.5741	23.6308
2.5728	23.6396
2.5715	23.6728
2.5702	23.7141
2.5690	23.7712
2.5677	23.7741
2.5664	23.7263
2.5651	23.7057
2.5639	23.6821
2.5626	23.6767
2.5613	23.7241
2.5601	23.8090
2.5588	23.8952
2.5575	23.9489
2.5563	23.9724
2.5550	23.9782
2.5538	23.9577
2.5525	23.9365
2.5513	23.9291
2.5500	23.9252
2.5487	23.9328
2.5475	23.9553
2.5462	23.9643
2.5450	23.9653
2.5437	23.9589
2.5425	23.9548
2.5413	23.9785
2.5400	23.9951
2.5388	23.9955
2.5375	24.0087
2.5363	24.0053
2.5350	23.9868
2.5338	23.9714
2.5326	23.9692
2.5313	23.9802
2.5301	23.9843
2.5289	23.9909
2.5276	24.0002
2.5264	23.9955
2.5252	23.9863
2.5239	23.9936
2.5227	24.0124
2.5215	24.0358
2.5202	24.0573
2.5190	24.0580
2.5178	24.0410
2.5166	24.0344
2.5154	24.0388
2.5141	24.0690
2.5129	24.1047
2.5117	24.1450
2.5105	24.1782
2.5093	24.1904
2.5081	24.1940
2.5068	24.1945
2.5056	24.1938
2.5044	24.2079
2.5032	24.2255
2.5020	24.2455
2.5008	24.2607
2.4996	24.2802
2.4984	24.2919
2.4972	24.2980
2.4960	24.3066
2.4948	24.3200
2.4936	24.3386
2.4924	24.3513
2.4912	24.3615
2.4900	24.3911
2.4888	24.4211
2.4876	24.4330
2.4864	24.4448
2.4852	24.4723
2.4840	24.4999
2.4828	24.5363
2.4816	24.5837
2.4805	24.6325
2.4793	24.6721
2.4781	24.7060
2.4769	24.7397
2.4757	24.7639
2.4745	24.7744
2.4734	24.7885
2.4722	24.7953
2.4710	24.8066
2.4698	24.8395
2.4686	24.9081
2.4675	24.9848
2.4663	25.0461
2.4651	25.0927
2.4640	25.1240
2.4628	25.1435
2.4616	25.1774
2.4604	25.2202
2.4593	25.2634
2.4581	25.2941
2.4569	25.3234
2.4558	25.3552
2.4546	25.3796
2.4535	25.4108
2.4523	25.4675
2.4511	25.5192
2.4500	25.5466
2.4488	25.5605
2.4477	25.5827
2.4465	25.6091
2.4454	25.6362
2.4442	25.6681
2.4431	25.7158
2.4419	25.7670
2.4408	25.8173
2.4396	25.8625
2.4385	25.8852
2.4373	25.9147
2.4362	25.9516
2.4350	25.9833
2.4339	26.0278
2.4327	26.0868
2.4316	26.1564
2.4305	26.2150
2.4293	26.2656
2.4282	26.3132
2.4270	26.3510
2.4259	26.3903
2.4248	26.4389
2.4236	26.4814
2.4225	26.5173
2.4214	26.5439
2.4202	26.5781
2.4191	26.6010
2.4180	26.6293
2.4169	26.6706
2.4157	26.7258
2.4146	26.7897
2.4135	26.8598
2.4124	26.9089
2.4112	26.9399
2.4101	26.9599
2.4090	26.9538
2.4079	26.9247
2.4068	26.9081
2.4056	26.9206
2.4045	26.9596
2.4034	27.0075
2.4023	27.0575
2.4012	27.1064
2.4001	27.1271
2.3990	27.1169
2.3979	27.1078
2.3967	27.0900
2.3956	27.0700
2.3945	27.0788
2.3934	27.0988
2.3923	27.1135
2.3912	27.1413
2.3901	27.1725
2.3890	27.1999
2.3879	27.2189
2.3868	27.2302
2.3857	27.2341
2.3846	27.2338
2.3835	27.2477
2.3824	27.2868
2.3813	27.3115
2.3802	27.3395
2.3791	27.3869
2.3781	27.4094
2.3770	27.3998
2.3759	27.4013
2.3748	27.4340
2.3737	27.4694
2.3726	27.4941
2.3715	27.5226
2.3704	27.5412
2.3694	27.5492
2.3683	27.5676
2.3672	27.6047
2.3661	27.6425
2.3650	27.6576
2.3640	27.6674
2.3629	27.6491
2.3618	27.6064
2.3607	27.6059
2.3597	27.6406
2.3586	27.6703
2.3575	27.6764
2.3564	27.6642
2.3554	27.6598
2.3543	27.6535
2.3532	27.6393
2.3522	27.6603
2.3511	27.6950
2.3500	27.7201
2.3490	27.7409
2.3479	27.7590
2.3468	27.7778
2.3458	27.8002
2.3447	27.8190
2.3436	27.8293
2.3426	27.8329
2.3415	27.8488
2.3405	27.8754
2.3394	27.9350
2.3384	28.0112
2.3373	28.0751
2.3363	28.1381
2.3352	28.1728
2.3342	28.1835
2.3331	28.1845
2.3321	28.1772
2.3310	28.1945
2.3300	28.2023
2.3289	28.1847
2.3279	28.1730
2.3268	28.1601
2.3258	28.1557
2.3247	28.1716
2.3237	28.1769
2.3226	28.1706
2.3216	28.1698
2.3206	28.1750
2.3195	28.1647
2.3185	28.1532
2.3175	28.1650
2.3164	28.1972
2.3154	28.1891
2.3144	28.1520
2.3133	28.1484
2.3123	28.1640
2.3113	28.1703
2.3102	28.1911
2.3092	28.2197
2.3082	28.2365
2.3071	28.2302
2.3061	28.2287
2.3051	28.2541
2.3041	28.2848
2.3030	28.3156
2.3020	28.3627
2.3010	28.4030
2.3000	28.4330
2.2990	28.4560
2.2979	28.4914
2.2969	28.5302
2.2959	28.5558
2.2949	28.5639
2.2939	28.5610
2.2929	28.5746
2.2918	28.6052
2.2908	28.6130
2.2898	28.6113
2.2888	28.6410
2.2878	28.6803
2.2868	28.7035
2.2858	28.7275
2.2848	28.7741
2.2838	28.8061
2.2828	28.7887
2.2818	28.7497
2.2808	28.7482
2.2798	28.7839
2.2787	28.8180
2.2777	28.8671
2.2767	28.9111
2.2757	28.9345
2.2747	28.9596
2.2738	28.9897
2.2728	29.0092
2.2718	29.0077
2.2708	28.9906
2.2698	28.9955
2.2688	29.0014
2.2678	29.0177
2.2668	29.0448
2.2658	29.0805
2.2648	29.1034
2.2638	29.0890
2.2628	29.0798
2.2618	29.1166
2.2609	29.1657
2.2599	29.1972
2.2589	29.1957
2.2579	29.1869
2.2569	29.1701
2.2559	29.1447
2.2550	29.1364
2.2540	29.1789
2.2530	29.2399
2.2520	29.2853
2.2510	29.3002
2.2501	29.2905
2.2491	29.2707
2.2481	29.2685
2.2471	29.2897
2.2462	29.3322
2.2452	29.3683
2.2442	29.3959
2.2433	29.3984
2.2423	29.3747
2.2413	29.3647
2.2403	29.3639
2.2394	29.3761
2.2384	29.4032
2.2374	29.4267
2.2365	29.4169
2.2355	29.3468
2.2345	29.2924
2.2336	29.2968
2.2326	29.3146
2.2317	29.3527
2.2307	29.4010
2.2297	29.4316
2.2288	29.3935
2.2278	29.3112
2.2269	29.2958
2.2259	29.3212
2.2250	29.3442
2.2240	29.3615
2.2231	29.3642
2.2221	29.3476
2.2211	29.2680
2.2202	29.1747
2.2192	29.1303
2.2183	29.0864
2.2173	29.0453
2.2164	29.0246
2.2155	29.0007
2.2145	28.9396
2.2136	28.8241
2.2126	28.6889
2.2117	28.5612
2.2107	28.4399
2.2098	28.3588
2.2088	28.3381
2.2079	28.3407
2.2070	28.3644
2.2060	28.4074
2.2051	28.4301
2.2041	28.4430
2.2032	28.4794
2.2023	28.5253
2.2013	28.5666
2.2004	28.5973
2.1995	28.6222
2.1985	28.6286
2.1976	28.6257
2.1967	28.6342
2.1957	28.6677
2.1948	28.7138
2.1939	28.7670
2.1930	28.8134
2.1920	28.8356
2.1911	28.8583
2.1902	28.8801
2.1893	28.8735
2.1883	28.8906
2.1874	28.9308
2.1865	28.9657
2.1856	28.9838
2.1846	29.0102
2.1837	29.0658
2.1828	29.0988
2.1819	29.1213
2.1810	29.1901
2.1800	29.2497
2.1791	29.2656
2.1782	29.2614
2.1773	29.2602
2.1764	29.2333
2.1755	29.1698
2.1746	29.1532
2.1736	29.1952
2.1727	29.2404
2.1718	29.2692
2.1709	29.3068
2.1700	29.3569
2.1691	29.3837
2.1682	29.4025
2.1673	29.4650
2.1664	29.5256
2.1655	29.5509
2.1646	29.5456
2.1637	29.5268
2.1628	29.5043
2.1619	29.5124
2.1610	29.5339
2.1601	29.5383
2.1592	29.5282
2.1583	29.5343
2.1574	29.5607
2.1565	29.5966
2.1556	29.6357
2.1547	29.7043
2.1538	29.7289
2.1529	29.7028
2.1520	29.6786
2.1511	29.7011
2.1502	29.7660
2.1493	29.8320
2.1484	29.8671
2.1475	29.8840
2.1466	29.8656
2.1458	29.8566
2.1449	29.8830
2.1440	29.9648
2.1431	30.0610
2.1422	30.0988
2.1413	30.0856
2.1404	30.0307
2.1396	29.9635
2.1387	29.9299
2.1378	29.9543
2.1369	29.9972
2.1360	30.0280
2.1352	30.0463
2.1343	30.0431
2.1334	30.0041
2.1325	29.9528
2.1316	29.9396
2.1308	29.9445
2.1299	29.9255
2.1290	29.9164
2.1281	29.9325
2.1273	29.9342
2.1264	29.9426
2.1255	29.9797
2.1247	30.0309
2.1238	30.0534
2.1229	30.0690
2.1220	30.1047
2.1212	30.1183
2.1203	30.0859
2.1194	30.0661
2.1186	30.0678
2.1177	30.0444
2.1168	30.0524
2.1160	30.0964
2.1151	30.1318
2.1143	30.1125
2.1134	30.0300
2.1125	29.9582
2.1117	29.9230
2.1108	29.9230
2.1100	29.9538
2.1091	29.9555
2.1082	29.9218
2.1074	29.8957
2.1065	29.9032
2.1057	29.9445
2.1048	30.0221
2.1040	30.1281
2.1031	30.2133
2.1023	30.2319
2.1014	30.1772
2.1005	30.1335
2.0997	30.0724
2.0988	29.9772
2.0980	29.9360
2.0971	29.9552
2.0963	30.0024
2.0955	30.0295
2.0946	30.0004
2.0938	29.9909
2.0929	29.9618
2.0921	29.9155
2.0912	29.9362
2.0904	30.0160
2.0895	30.0629
2.0887	30.0431
2.0879	30.0221
2.0870	30.0346
2.0862	30.0329
2.0853	29.9887
2.0845	29.9528
2.0837	29.9391
2.0828	29.9201
2.0820	29.8874
2.0812	29.9367
2.0803	30.1606
2.0795	30.3124
2.0760	30.6848
2.0720	30.5196
2.0680	30.6292
2.0640	30.6292
2.0600	30.4166
2.0560	30.4810
2.0520	30.4296
2.0480	30.3782
2.0440	30.5431
2.0400	30.1104
2.0360	30.0424
2.0320	29.9944
2.0280	30.3076
2.0240	30.2723
2.0200	30.3048
2.0160	30.1327
2.0120	29.9307
2.0080	29.8417
2.0040	29.9390
2.0000	29.3959
1.9960	29.1642
1.9920	29.0786
1.9880	28.8914
1.9840	28.7122
1.9800	28.5084
1.9760	28.4845
1.9720	28.4466
1.9680	28.7051
1.9640	28.4994
1.9600	28.1752
1.9560	27.7640
1.9520	27.3985
1.9480	27.2381
1.9440	26.8556
1.9400	26.6056
1.9360	26.4287
1.9320	26.3994
1.9280	26.1899
1.9240	26.0692
1.9200	25.7832
1.9160	25.8481
1.9120	26.0384
1.9080	26.0533
1.9040	26.2700
1.9000	26.7002
1.8960	27.4867
1.8920	28.1816
1.8880	28.7836
1.8840	29.5331
1.8800	30.5036
1.8760	31.0433
1.8720	31.1246
1.8680	31.6611
1.8640	31.6770
1.8600	31.8966
1.8560	31.8933
1.8520	32.3252
1.8480	32.6103
1.8440	32.5214
1.8400	32.5347
1.8360	32.5053
1.8320	32.2197
1.8280	32.3339
1.8240	32.1314
1.8200	32.0264
1.8160	31.6304
1.8120	31.8026
1.8080	32.1647
1.8040	31.8720
1.8000	32.0704
1.7960	32.0880
1.7920	31.7686
1.7880	31.7513
1.7840	32.0880
1.7800	31.9334
1.7760	31.6832
1.7720	31.6832
1.7680	31.9351
1.7640	31.7619
1.7600	31.7631
1.7560	31.7807
1.7520	31.6576
1.7480	31.8470
1.7440	31.6484
1.7400	31.7181
1.7360	31.7795
1.7320	31.5617
1.7280	31.8351
1.7240	31.5266
1.7200	31.5093
1.7160	31.3883
1.7120	31.5618
1.7080	31.2687
1.7040	31.5869
1.7000	31.6567
1.6960	31.5964
1.6920	31.6311
1.6880	31.4578
1.6840	31.6311
1.6800	31.6567
1.6760	31.3186
1.6720	31.4401
1.6680	31.5966
1.6640	31.3883
1.6600	31.2842
1.6560	31.3179
1.6520	31.1604
1.6480	31.1949
1.6440	31.3179
1.6400	31.3872
1.6360	31.4745
1.6320	31.2468
1.6280	31.2111
1.6240	31.2632
1.6200	31.0297
1.6160	30.9836
1.6120	31.0008
1.6080	30.9472
1.6040	31.1691
1.6000	30.7881
1.5960	30.8914
1.5920	30.8569
1.5880	30.8224
1.5840	30.6939
1.5800	30.7024
1.5760	30.7929
1.5720	30.6342
1.5680	30.5802
1.5640	30.5771
1.5600	30.5228
1.5560	30.4887
1.5520	30.4320
1.5480	30.2929
1.5440	30.6113
1.5400	30.8028
1.5360	30.3942
1.5320	30.3942
1.5280	30.1763
1.5240	30.2776
1.5200	30.0162
1.5160	29.9385
1.5120	30.1340
1.5080	29.9057
1.5040	29.5826
1.5000	29.3830
1.4960	29.9019
1.4920	29.7369
1.4880	29.6433
1.4840	29.2672
1.4800	29.2178
1.4760	29.0299
1.4720	29.1257
1.4680	28.9891
1.4640	29.0545
1.4600	28.8666
1.4560	28.7443
1.4520	28.9644
1.4480	29.1286
1.4440	29.0055
1.4400	28.8808
1.4360	28.8973
1.4320	28.7162
1.4280	28.6349
1.4240	28.4206
1.4200	28.5679
1.4160	28.3026
1.4120	28.1999
1.4080	27.9280
1.4040	28.1967
1.4000	28.0664
1.3960	27.8569
1.3920	27.9280
1.3880	28.1933
1.3840	28.2191
1.3800	28.4105
1.3760	28.6568
1.3720	28.9549
1.3680	28.7928
1.3640	28.7788
1.3600	29.0610
1.3560	29.1786
1.3520	28.9865
1.3480	29.1376
1.3440	29.0392
1.3400	28.9578
1.3360	29.0140
1.3320	29.0797
1.3280	29.0879
1.3240	29.0962
1.3200	29.1708
1.3160	28.9151
1.3120	28.5015
1.3080	28.1193
1.3040	28.2672
1.3000	28.5150
1.2960	28.5621
1.2920	28.3687
1.2880	28.3250
1.2840	28.3020
1.2800	28.2295
1.2760	28.0747
1.2720	27.8251
1.2680	27.6248
1.2640	28.0213
1.2600	28.1647
1.2560	28.1811
1.2520	28.1439
1.2480	27.8160
1.2440	27.7535
1.2400	27.6909
1.2360	27.7233
1.2320	27.6766
1.2280	27.5168
1.2240	27.2146
1.2200	27.0556
1.2160	27.7213
1.2120	27.5545
1.2080	27.4913
1.2040	27.4121
1.2000	27.4280
1.1960	27.2853
1.1920	27.2104
1.1880	27.3015
1.1840	27.0374
1.1800	27.2387
1.1760	27.0702
1.1720	26.7620
1.1680	26.7773
1.1640	26.7282
1.1600	26.8048
1.1560	26.7028
1.1520	26.2568
1.1480	26.2952
1.1440	25.9913
1.1400	25.9106
1.1360	26.1352
1.1320	26.1946
1.1280	26.3317
1.1240	25.9176
1.1200	25.8502
1.1160	25.4902
1.1120	25.4161
1.1080	25.4456
1.1040	25.3541
1.1000	24.9722
1.0960	25.1972
1.0920	25.0014
1.0880	25.1041
1.0840	24.9763
1.0800	24.7649
1.0760	24.8232
1.0720	24.6229
1.0680	24.4240
1.0640	24.3682
1.0600	24.5384
1.0560	24.4110
1.0520	24.4545
1.0480	24.4110
1.0440	24.2559
1.0400	24.0999
1.0360	24.1869
1.0320	23.7728
1.0280	23.4316
1.0240	23.5732
1.0200	23.4732
1.0160	23.2767
1.0120	23.1768
1.0080	22.9579
1.0040	22.8302
1.0000	22.7972
0.9960	22.9604
0.9920	22.8736
0.9880	22.5021
0.9840	22.7784
0.9800	22.6119
0.9760	22.3961
0.9720	22.4535
0.9680	22.2067
0.9640	22.1759
0.9600	21.8885
0.9560	21.7867
0.9520	21.5455
0.9480	21.6790
0.9440	21.4170
0.9400	21.4559
0.9360	21.2805
0.9320	21.2934
0.9280	21.1523
0.9240	20.8709
0.9200	20.7939
0.9160	20.6391
0.9120	20.6391
0.9080	20.4205
0.9040	20.2141
0.9000	20.3012
0.8960	20.2099
0.8920	20.2038
0.8880	20.0584
0.8840	20.2521
0.8800	20.1226
0.8760	20.0943
0.8720	20.1963
0.8680	19.8431
0.8640	19.8604
0.8600	19.5895
0.8560	19.5557
0.8520	19.3684
0.8480	19.4999
0.8440	19.3139
0.8400	19.2318
0.8360	19.0859
0.8320	19.0532
0.8280	18.7647
0.8240	18.5979
0.8200	18.6220
0.8160	18.6331
0.8120	18.7511
0.8080	18.3344
0.8040	18.3118
0.8000	18.1560
0.7990	17.5675
0.7980	17.5660
0.7970	17.6193
0.7960	17.5835
0.7950	17.5586
0.7940	17.1303
0.7930	17.5462
0.7920	17.5223
0.7910	17.5068
0.7900	17.3631
0.7890	17.4624
0.7880	17.5192
0.7870	17.4999
0.7860	17.6320
0.7850	17.5192
0.7840	17.4499
0.7830	17.2607
0.7820	17.0310
0.7810	16.9136
0.7800	16.8665
0.7790	17.0432
0.7780	17.1043
0.7770	17.0676
0.7760	17.0432
0.7750	16.8665
0.7740	16.9739
0.7730	16.8424
0.7720	16.8413
0.7710	16.8413
0.7700	16.4837
0.7690	16.4959
0.7680	16.4718
0.7670	16.5552
0.7660	16.5671
0.7650	16.5552
0.7640	16.4236
0.7630	16.4956
0.7620	16.2218
0.7610	16.2570
0.7600	16.3159
0.7590	16.2906
0.7580	16.0034
0.7570	16.1828
0.7560	16.0502
0.7550	16.0502
0.7540	15.9685
0.7530	16.0391
0.7520	15.7866
0.7510	15.8492
0.7500	16.0156
0.7490	15.8213
0.7480	15.7991
0.7470	15.7875
0.7460	15.4391
0.7450	15.7031
0.7440	15.5361
0.7430	15.5247
0.7420	15.6063
0.7410	15.6514
0.7400	15.5423
0.7390	15.3988
0.7380	15.2783
0.7370	15.1578
0.7360	15.2687
0.7350	15.2687
0.7340	15.3374
0.7330	15.1301
0.7320	15.0205
0.7310	14.9415
0.7300	14.7099
0.7290	14.6658
0.7280	14.8185
0.7270	14.7410
0.7260	14.6757
0.7250	14.5881
0.7240	14.4155
0.7230	14.3607
0.7220	14.4045
0.7210	14.3935
0.7200	14.6324
0.7190	14.2169
0.7180	14.2836
0.7170	14.1410
0.7160	14.1302
0.7150	14.1843
0.7140	14.2169
0.7130	14.0740
0.7120	14.0848
0.7110	13.9172
0.7100	13.7848
0.7090	13.7848
0.7080	13.6737
0.7070	13.5941
0.7060	13.5835
0.7050	13.5730
0.7040	13.5309
0.7030	13.3574
0.7020	13.3367
0.7010	13.0843
0.7000	13.4826
0.6990	13.5352
0.6980	13.3297
0.6970	13.2342
0.6960	12.8915
0.6950	12.8504
0.6940	12.8709
0.6930	12.8197
0.6920	12.6759
0.6910	12.6759
0.6900	12.6759
0.6890	12.6130
0.6880	12.5827
0.6870	12.4292
0.6860	12.4192
0.6850	12.3894
0.6840	12.2959
0.6830	12.2762
0.6820	12.0299
0.6810	11.8971
0.6800	11.8683
0.6790	11.9938
0.6780	12.0231
0.6770	11.9281
0.6760	11.8797
0.6750	11.8990
0.6740	11.7270
0.6730	11.4328
0.6720	11.4328
0.6710	11.7661
0.6700	11.7856
0.6690	11.8052
0.6680	11.7204
0.6670	11.4216
0.6660	11.6814
0.6650	11.4337
0.6640	11.3004
0.6630	11.2531
0.6620	11.4529
0.6610	11.0903
0.6600	10.7466
0.6590	11.0063
0.6580	10.8554
0.6570	11.0716
0.6560	10.6674
0.6550	10.7122
0.6540	10.8885
0.6530	10.9663
0.6520	10.7870
0.6510	10.6634
0.6500	10.6181
0.6490	10.5731
0.6480	10.2746
0.6470	10.3274
0.6460	10.2661
0.6450	10.2749
0.6440	10.1427
0.6430	10.3015
0.6420	10.1778
0.6410	10.1690
0.6400	10.1602
0.6390	10.1427
0.6380	9.9825
0.6370	9.9477
0.6360	10.0658
0.6350	9.9477
0.6340	9.7086
0.6330	9.7086
0.6320	9.9912
0.6310	9.7513
0.6300	9.7428
0.6290	9.6441
0.6280	9.7728
0.6270	9.4608
0.6260	9.2873
0.6250	9.0323
0.6240	9.4989
0.6230	9.5329
0.6220	9.0972
0.6210	9.0323
0.6200	9.0366
0.6190	8.9879
0.6180	9.2343
0.6170	9.0056
0.6160	8.8813
0.6150	8.9055
0.6140	8.7810
0.6130	8.7730
0.6120	8.8050
0.6110	8.8050
0.6100	8.6723
0.6090	8.6644
0.6080	8.3997
0.6070	8.5784
0.6060	8.6184
0.6050	8.5092
0.6040	8.2658
0.6030	8.2813
0.6020	8.1940
0.6010	8.2483
0.6000	8.0332
0.5990	8.1068
0.5980	7.9948
0.5970	7.8470
0.5960	7.8622
0.5950	7.9312
0.5940	7.8243
0.5930	7.7267
0.5920	7.7343
0.5910	7.6063
0.5900	7.5216
0.5890	7.6587
0.5880	7.3649
0.5870	7.3942
0.5860	7.2730
0.5850	7.4533
0.5840	6.9734
0.5830	6.9032
0.5820	6.9102
0.5810	6.9312
0.5800	6.7241
0.5790	6.8671
0.5780	6.8742
0.5770	6.6764
0.5760	6.4345
0.5750	6.5531
0.5740	6.5125
0.5730	6.1597
0.5720	6.3599
0.5710	6.4125
0.5700	6.4656
0.5690	6.0479
0.5680	5.9108
0.5670	5.9046
0.5660	5.8984
0.5650	5.6438
0.5640	5.6197
0.5630	5.6493
0.5620	5.6739
0.5610	5.4368
0.5600	5.3238
0.5590	5.3592
0.5580	5.2538
0.5570	5.2019
0.5560	4.9441
0.5550	4.5177
0.5540	4.8155
0.5530	4.3945
0.5520	4.7141
0.5510	4.6230
0.5500	4.5313
0.5490	4.5635
0.5480	4.0419
0.5470	4.0272
0.5460	4.0125
0.5450	3.9689
0.5440	4.1738
0.5430	3.7345
0.5420	3.7533
0.5410	3.9298
0.5400	3.9448
0.5390	3.7245
0.5380	3.9700
0.5370	3.7589
0.5360	3.5992
0.5350	3.6282
0.5340	3.6380
0.5330	3.4597
0.5320	3.2324
0.5310	3.4173
0.5300	3.3068
0.5290	3.4408
0.5280	3.3161
0.5270	3.2050
0.5260	2.8884
0.5250	2.9052
0.5240	2.6588
0.5230	3.2325
0.5220	2.6832
0.5210	2.6913
0.5200	3.0084
0.5190	2.5295
0.5180	2.6923
0.5170	2.3927
0.5160	2.4043
0.5150	2.7479
0.5140	2.2982
0.5130	2.4199
0.5120	2.3174
0.5110	2.3059
0.5100	2.3290
0.5090	2.3251
0.5080	2.0470
0.5070	2.0397
0.5060	2.0507
0.5050	1.9214
0.5040	2.0544
0.5030	1.9214
0.5020	1.9358
0.5010	1.6414
0.5000	1.8170
0.4990	1.8419
0.4980	1.8064
0.4970	1.7993
0.4960	1.6547
0.4950	1.5254
0.4940	1.5516
0.4930	1.5385
0.4920	1.3638
0.4910	1.5157
0.4900	1.3700
0.4890	1.5385
0.4880	1.5582
0.4870	1.4283
0.4860	1.0118
0.4850	1.2410
0.4840	1.2529
0.4830	1.2589
0.4820	1.2710
0.4810	1.2860
0.4800	1.2740
0.4790	1.0118
0.4780	1.0233
0.4770	1.0290
0.4760	1.2800
0.4750	1.1415
0.4740	0.8783
0.4730	0.8756
0.4720	0.8756
0.4710	0.8756
0.4700	0.8159
0.4690	0.5517
0.4680	0.4288
0.4670	0.5585
0.4660	0.5427
0.4650	0.5517
0.4640	0.5676
0.4630	0.4021
0.4620	0.3939
0.4610	0.3918
0.4600	0.4021
0.4590	0.5474
0.4580	0.4288
0.4570	0.4495
0.4560	0.4533
0.4550	0.2890
0.4540	0.2941
0.4530	0.2806
0.4520	0.2890
0.4510	-0.1560
0.4500	-0.1572
0.4490	-0.0408
0.4480	-0.3265
0.4470	-0.1583
0.4460	-0.1970
0.4450	-0.1959
0.4440	-0.1938
0.4430	-0.1906
0.4420	-0.3587
0.4410	-0.3501
0.4400	-0.3527
0.4390	-0.3510
0.4380	-0.6400
0.4370	-0.6389
0.4360	-0.5124
0.4350	-0.5156
0.4340	-0.8442
0.4330	-0.9724
0.4320	-0.8428
0.4310	-1.0095
0.4300	-1.1383
0.4290	-1.1761
0.4280	-1.3435
0.4270	-1.1774
0.4260	-1.1782
0.4250	-1.3439
0.4240	-1.1767
0.4230	-1.2169
0.4220	-1.3890
0.4210	-1.3909
0.4200	-1.3890
0.4190	-1.3865
0.4180	-1.7244
0.4170	-1.5887
0.4160	-1.8821
0.4150	-1.7563
0.4140	-1.7552
0.4130	-1.7541
0.4120	-1.7507
0.4110	-2.0505
0.4100	-1.9212
0.4090	-2.0477
0.4080	-2.0900
0.4070	-2.0947
0.4060	-1.9651
0.4050	-2.0947
0.4040	-2.1093
0.4030	-2.1093
0.4020	-2.4555
0.4010	-2.5906
0.4000	-2.6332
