Name:  Vary dark grayish brown loam
Type:  Soils
Class:  Mollisol
Subclass:  Agriudoll
Particle Size:  see additional information
Sample No.:  87P757
Owner:  JHU
Wavelength range:  All
Origin:  Jefferson Co., Tn. via USDA Soil Conservation service.

Description: Parent material is alluvium from mixed material.  Very dark 
grayish brown loam, (fine-loamy, mixed, thermic typic).  
Physiography: flood plain in hills.



Measurement:  Directional (10 degree) hemispherical reflectance
First Column:  X
Second Column:  Y
X Units:  Wavelength (micrometers)
Y Units:  Reflectance (percent)
First X Value:  14.0112
Last X Value:  0.4000
Number of X Values:  2844
Additional information:  87P757a.txt

14.0112	2.0200
13.9735	2.0911
13.9359	2.1518
13.8985	2.1999
13.8614	2.2329
13.8244	2.2519
13.7876	2.2612
13.7511	2.2671
13.7147	2.2734
13.6785	2.2847
13.6425	2.3022
13.6067	2.3247
13.5711	2.3479
13.5356	2.3684
13.5004	2.3843
13.4653	2.3943
13.4304	2.3974
13.3957	2.3955
13.3612	2.3906
13.3269	2.3862
13.2927	2.3833
13.2587	2.3843
13.2249	2.3887
13.1912	2.3928
13.1577	2.3935
13.1244	2.3909
13.0913	2.3860
13.0583	2.3831
13.0255	2.3877
12.9929	2.4058
12.9604	2.4382
12.9281	2.4800
12.8959	2.5203
12.8639	2.5466
12.8321	2.5459
12.8004	2.5093
12.7688	2.4382
12.7375	2.3440
12.7063	2.2458
12.6752	2.1641
12.6443	2.1155
12.6135	2.1067
12.5829	2.1299
12.5524	2.1648
12.5221	2.1841
12.4919	2.1628
12.4619	2.0850
12.4320	1.9524
12.4023	1.7852
12.3727	1.6152
12.3432	1.4768
12.3139	1.3936
12.2847	1.3740
12.2557	1.4102
12.2268	1.4836
12.1980	1.5749
12.1694	1.6707
12.1409	1.7659
12.1125	1.8613
12.0843	1.9576
12.0562	2.0537
12.0282	2.1472
12.0003	2.2351
11.9726	2.3174
11.9450	2.3970
11.9176	2.4795
11.8903	2.5688
11.8631	2.6645
11.8360	2.7615
11.8090	2.8535
11.7822	2.9348
11.7555	3.0022
11.7289	3.0549
11.7024	3.0959
11.6760	3.1291
11.6498	3.1572
11.6237	3.1807
11.5977	3.1992
11.5718	3.2129
11.5460	3.2212
11.5203	3.2248
11.4948	3.2258
11.4694	3.2263
11.4440	3.2263
11.4188	3.2246
11.3937	3.2192
11.3688	3.2085
11.3439	3.1926
11.3191	3.1731
11.2945	3.1536
11.2699	3.1372
11.2455	3.1247
11.2211	3.1142
11.1969	3.1028
11.1727	3.0847
11.1487	3.0564
11.1248	3.0168
11.1010	2.9674
11.0773	2.9128
11.0536	2.8584
11.0301	2.8096
11.0067	2.7705
10.9834	2.7414
10.9602	2.7219
10.9370	2.7109
10.9140	2.7074
10.8911	2.7109
10.8682	2.7207
10.8455	2.7363
10.8229	2.7568
10.8003	2.7783
10.7779	2.7986
10.7555	2.8169
10.7332	2.8326
10.7111	2.8462
10.6890	2.8596
10.6670	2.8735
10.6451	2.8896
10.6233	2.9076
10.6015	2.9270
10.5799	2.9480
10.5584	2.9692
10.5369	2.9883
10.5155	3.0032
10.4942	3.0129
10.4730	3.0185
10.4519	3.0210
10.4309	3.0222
10.4099	3.0234
10.3891	3.0254
10.3683	3.0271
10.3476	3.0276
10.3270	3.0278
10.3065	3.0283
10.2860	3.0300
10.2656	3.0330
10.2454	3.0369
10.2252	3.0415
10.2050	3.0459
10.1850	3.0517
10.1650	3.0613
10.1451	3.0781
10.1253	3.1035
10.1056	3.1382
10.0859	3.1807
10.0663	3.2280
10.0468	3.2759
10.0274	3.3223
10.0080	3.3667
9.9887	3.4097
9.9695	3.4509
9.9504	3.4897
9.9313	3.5249
9.9123	3.5539
9.8934	3.5752
9.8746	3.5906
9.8558	3.6030
9.8371	3.6172
9.8185	3.6372
9.7999	3.6663
9.7814	3.7058
9.7630	3.7556
9.7447	3.8157
9.7264	3.8850
9.7082	3.9609
9.6900	4.0415
9.6719	4.1235
9.6539	4.2053
9.6360	4.2849
9.6181	4.3618
9.6003	4.4360
9.5825	4.5066
9.5649	4.5723
9.5472	4.6326
9.5297	4.6894
9.5122	4.7483
9.4948	4.8164
9.4774	4.9036
9.4601	5.0198
9.4429	5.1736
9.4257	5.3672
9.4086	5.5979
9.3916	5.8550
9.3746	6.1238
9.3577	6.3850
9.3408	6.6194
9.3240	6.8127
9.3073	6.9585
9.2906	7.0578
9.2740	7.1179
9.2574	7.1494
9.2409	7.1638
9.2245	7.1680
9.2081	7.1653
9.1918	7.1560
9.1755	7.1391
9.1593	7.1150
9.1431	7.0832
9.1270	7.0437
9.1110	6.9966
9.0950	6.9416
9.0791	6.8791
9.0632	6.8105
9.0474	6.7400
9.0316	6.6721
9.0159	6.6124
9.0003	6.5666
8.9847	6.5390
8.9691	6.5332
8.9536	6.5500
8.9382	6.5874
8.9228	6.6391
8.9075	6.6963
8.8922	6.7474
8.8770	6.7832
8.8618	6.7988
8.8467	6.7947
8.8316	6.7756
8.8166	6.7490
8.8016	6.7225
8.7867	6.7012
8.7718	6.6858
8.7570	6.6723
8.7422	6.6511
8.7275	6.6062
8.7129	6.5200
8.6982	6.3791
8.6837	6.1850
8.6692	5.9597
8.6547	5.7468
8.6403	5.5981
8.6259	5.5566
8.6116	5.6399
8.5973	5.8327
8.5830	6.0923
8.5688	6.3652
8.5547	6.6055
8.5406	6.7886
8.5266	6.9121
8.5126	6.9885
8.4986	7.0373
8.4847	7.0752
8.4708	7.1120
8.4570	7.1525
8.4432	7.1990
8.4295	7.2529
8.4158	7.3159
8.4022	7.3877
8.3886	7.4682
8.3750	7.5549
8.3615	7.6460
8.3481	7.7409
8.3347	7.8401
8.3213	7.9470
8.3079	8.0647
8.2946	8.1950
8.2814	8.3375
8.2682	8.4866
8.2550	8.6333
8.2419	8.7661
8.2288	8.8718
8.2158	8.9394
8.2028	8.9587
8.1898	8.9216
8.1769	8.8227
8.1640	8.6584
8.1512	8.4299
8.1384	8.1428
8.1256	7.8108
8.1129	7.4516
8.1002	7.0830
8.0876	6.7219
8.0750	6.3794
8.0624	6.0615
8.0499	5.7690
8.0374	5.5010
8.0250	5.2551
8.0126	5.0286
8.0002	4.8164
7.9879	4.6133
7.9756	4.4141
7.9634	4.2153
7.9512	4.0149
7.9390	3.8135
7.9268	3.6142
7.9147	3.4226
7.9027	3.2434
7.8906	3.0815
7.8786	2.9392
7.8667	2.8184
7.8548	2.7180
7.8429	2.6365
7.8310	2.5708
7.8192	2.5188
7.8075	2.4780
7.7957	2.4453
7.7840	2.4165
7.7723	2.3889
7.7607	2.3608
7.7491	2.3310
7.7375	2.2996
7.7260	2.2681
7.7145	2.2371
7.7031	2.2065
7.6916	2.1755
7.6802	2.1443
7.6689	2.1118
7.6575	2.0776
7.6462	2.0420
7.6350	2.0061
7.6238	1.9717
7.6126	1.9414
7.6014	1.9174
7.5903	1.9021
7.5792	1.8935
7.5681	1.8884
7.5571	1.8828
7.5461	1.8726
7.5351	1.8564
7.5242	1.8362
7.5133	1.8154
7.5024	1.7993
7.4916	1.7893
7.4807	1.7852
7.4700	1.7849
7.4592	1.7852
7.4485	1.7834
7.4378	1.7783
7.4272	1.7705
7.4165	1.7627
7.4059	1.7566
7.3954	1.7529
7.3848	1.7515
7.3743	1.7512
7.3639	1.7505
7.3534	1.7473
7.3430	1.7417
7.3326	1.7356
7.3223	1.7302
7.3119	1.7276
7.3016	1.7278
7.2914	1.7314
7.2811	1.7373
7.2709	1.7451
7.2607	1.7549
7.2506	1.7668
7.2404	1.7805
7.2303	1.7961
7.2203	1.8124
7.2102	1.8284
7.2002	1.8428
7.1902	1.8555
7.1803	1.8669
7.1703	1.8765
7.1604	1.8840
7.1506	1.8906
7.1407	1.8970
7.1309	1.9040
7.1211	1.9138
7.1113	1.9265
7.1016	1.9407
7.0919	1.9543
7.0822	1.9653
7.0725	1.9729
7.0629	1.9783
7.0533	1.9844
7.0437	1.9956
7.0341	2.0132
7.0246	2.0361
7.0151	2.0624
7.0056	2.0894
6.9962	2.1143
6.9867	2.1374
6.9773	2.1619
6.9679	2.1897
6.9586	2.2217
6.9493	2.2568
6.9400	2.2939
6.9307	2.3303
6.9214	2.3643
6.9122	2.3957
6.9030	2.4260
6.8938	2.4568
6.8847	2.4873
6.8755	2.5176
6.8664	2.5466
6.8573	2.5740
6.8483	2.5996
6.8393	2.6238
6.8302	2.6484
6.8213	2.6750
6.8123	2.7029
6.8034	2.7317
6.7944	2.7607
6.7855	2.7891
6.7767	2.8149
6.7678	2.8372
6.7590	2.8547
6.7502	2.8672
6.7414	2.8745
6.7327	2.8779
6.7239	2.8811
6.7152	2.8884
6.7065	2.9028
6.6979	2.9250
6.6892	2.9538
6.6806	2.9853
6.6720	3.0151
6.6634	3.0388
6.6549	3.0539
6.6464	3.0610
6.6378	3.0593
6.6294	3.0498
6.6209	3.0337
6.6124	3.0124
6.6040	2.9880
6.5956	2.9617
6.5872	2.9358
6.5789	2.9128
6.5705	2.8943
6.5622	2.8821
6.5539	2.8787
6.5456	2.8862
6.5374	2.9067
6.5292	2.9402
6.5209	2.9851
6.5128	3.0376
6.5046	3.0928
6.4964	3.1457
6.4883	3.1924
6.4802	3.2290
6.4721	3.2554
6.4640	3.2715
6.4560	3.2786
6.4480	3.2768
6.4399	3.2671
6.4320	3.2507
6.4240	3.2285
6.4160	3.2007
6.4081	3.1680
6.4002	3.1313
6.3923	3.0908
6.3844	3.0459
6.3766	2.9971
6.3687	2.9458
6.3609	2.8926
6.3531	2.8379
6.3454	2.7830
6.3376	2.7280
6.3299	2.6736
6.3221	2.6199
6.3144	2.5681
6.3068	2.5195
6.2991	2.4741
6.2914	2.4304
6.2838	2.3874
6.2762	2.3433
6.2686	2.2974
6.2611	2.2502
6.2535	2.2046
6.2460	2.1636
6.2385	2.1294
6.2310	2.1030
6.2235	2.0847
6.2160	2.0724
6.2086	2.0640
6.2011	2.0571
6.1937	2.0520
6.1863	2.0486
6.1790	2.0474
6.1716	2.0505
6.1643	2.0603
6.1570	2.0779
6.1496	2.1024
6.1424	2.1331
6.1351	2.1672
6.1278	2.2012
6.1206	2.2324
6.1134	2.2602
6.1062	2.2859
6.0990	2.3101
6.0918	2.3342
6.0847	2.3591
6.0776	2.3848
6.0704	2.4097
6.0633	2.4341
6.0563	2.4595
6.0492	2.4868
6.0421	2.5166
6.0351	2.5491
6.0281	2.5832
6.0211	2.6179
6.0141	2.6501
6.0071	2.6799
6.0002	2.7068
5.9932	2.7314
5.9863	2.7537
5.9794	2.7739
5.9725	2.7937
5.9657	2.8135
5.9588	2.8357
5.9520	2.8647
5.9451	2.9043
5.9383	2.9574
5.9315	3.0251
5.9247	3.1069
5.9180	3.2007
5.9112	3.3047
5.9045	3.4160
5.8978	3.5332
5.8911	3.6553
5.8844	3.7805
5.8777	3.9072
5.8711	4.0337
5.8644	4.1597
5.8578	4.2844
5.8512	4.4077
5.8446	4.5290
5.8380	4.6496
5.8314	4.7698
5.8249	4.8894
5.8184	5.0095
5.8118	5.1304
5.8053	5.2519
5.7988	5.3743
5.7923	5.4968
5.7859	5.6194
5.7794	5.7414
5.7730	5.8623
5.7666	5.9819
5.7602	6.0996
5.7538	6.2156
5.7474	6.3301
5.7410	6.4425
5.7347	6.5527
5.7283	6.6594
5.7220	6.7602
5.7157	6.8508
5.7094	6.9270
5.7031	6.9829
5.6969	7.0139
5.6906	7.0161
5.6844	6.9883
5.6782	6.9306
5.6719	6.8462
5.6657	6.7390
5.6596	6.6147
5.6534	6.4797
5.6472	6.3426
5.6411	6.2114
5.6349	6.0952
5.6288	5.9995
5.6227	5.9270
5.6166	5.8772
5.6106	5.8459
5.6045	5.8286
5.5984	5.8201
5.5924	5.8183
5.5864	5.8227
5.5804	5.8359
5.5744	5.8603
5.5684	5.8999
5.5624	5.9563
5.5564	6.0303
5.5505	6.1206
5.5445	6.2251
5.5386	6.3413
5.5327	6.4665
5.5268	6.5986
5.5209	6.7366
5.5151	6.8784
5.5092	7.0229
5.5033	7.1680
5.4975	7.3115
5.4917	7.4519
5.4859	7.5864
5.4801	7.7131
5.4743	7.8298
5.4685	7.9319
5.4628	8.0151
5.4570	8.0742
5.4513	8.1042
5.4455	8.1006
5.4398	8.0591
5.4341	7.9778
5.4284	7.8572
5.4228	7.6985
5.4171	7.5061
5.4114	7.2873
5.4058	7.0505
5.4002	6.8052
5.3945	6.5605
5.3889	6.3266
5.3833	6.1113
5.3778	5.9219
5.3722	5.7629
5.3666	5.6382
5.3611	5.5483
5.3555	5.4927
5.3500	5.4676
5.3445	5.4680
5.3390	5.4888
5.3335	5.5242
5.3280	5.5691
5.3225	5.6199
5.3171	5.6745
5.3116	5.7329
5.3062	5.7961
5.3008	5.8660
5.2954	5.9463
5.2900	6.0400
5.2846	6.1496
5.2792	6.2764
5.2738	6.4204
5.2684	6.5824
5.2631	6.7632
5.2578	6.9638
5.2524	7.1867
5.2471	7.4333
5.2418	7.7021
5.2365	7.9880
5.2312	8.2822
5.2260	8.5737
5.2207	8.8496
5.2154	9.0984
5.2102	9.3115
5.2050	9.4844
5.1998	9.6157
5.1945	9.7087
5.1893	9.7693
5.1842	9.8047
5.1790	9.8222
5.1738	9.8288
5.1686	9.8296
5.1635	9.8279
5.1584	9.8257
5.1532	9.8249
5.1481	9.8274
5.1430	9.8347
5.1379	9.8484
5.1328	9.8694
5.1277	9.8977
5.1227	9.9306
5.1176	9.9621
5.1126	9.9856
5.1075	9.9924
5.1025	9.9768
5.0975	9.9360
5.0925	9.8728
5.0875	9.7944
5.0825	9.7114
5.0775	9.6335
5.0726	9.5696
5.0676	9.5239
5.0627	9.4975
5.0577	9.4887
5.0528	9.4922
5.0479	9.5029
5.0430	9.5158
5.0380	9.5268
5.0332	9.5337
5.0283	9.5366
5.0234	9.5388
5.0185	9.5442
5.0137	9.5569
5.0088	9.5810
5.0040	9.6216
4.9992	9.6828
4.9944	9.7710
4.9896	9.8923
4.9848	10.0530
4.9800	10.2556
4.9752	10.4961
4.9704	10.7641
4.9657	11.0444
4.9609	11.3188
4.9562	11.5722
4.9514	11.7944
4.9467	11.9836
4.9420	12.1457
4.9373	12.2949
4.9326	12.4499
4.9279	12.6333
4.9232	12.8659
4.9186	13.1645
4.9139	13.5373
4.9092	13.9829
4.9046	14.4885
4.9000	15.0337
4.8953	15.5940
4.8907	16.1460
4.8861	16.6706
4.8815	17.1557
4.8769	17.5961
4.8723	17.9912
4.8678	18.3442
4.8632	18.6606
4.8586	18.9460
4.8541	19.2048
4.8495	19.4414
4.8450	19.6586
4.8405	19.8583
4.8360	20.0402
4.8315	20.2050
4.8270	20.3554
4.8225	20.4924
4.8180	20.6179
4.8135	20.7343
4.8090	20.8452
4.8046	20.9509
4.8001	21.0529
4.7957	21.1524
4.7913	21.2512
4.7868	21.3493
4.7824	21.4465
4.7780	21.5432
4.7736	21.6401
4.7692	21.7363
4.7648	21.8322
4.7605	21.9274
4.7561	22.0219
4.7517	22.1142
4.7474	22.2028
4.7431	22.2849
4.7387	22.3581
4.7344	22.4199
4.7301	22.4687
4.7258	22.5021
4.7215	22.5183
4.7172	22.5139
4.7129	22.4841
4.7086	22.4250
4.7043	22.3359
4.7000	22.2224
4.6958	22.0974
4.6915	21.9809
4.6873	21.8962
4.6831	21.8642
4.6788	21.8959
4.6746	21.9907
4.6704	22.1357
4.6662	22.3132
4.6620	22.5038
4.6578	22.6935
4.6536	22.8764
4.6495	23.0524
4.6453	23.2238
4.6411	23.3915
4.6370	23.5546
4.6328	23.7106
4.6287	23.8566
4.6246	23.9904
4.6205	24.1122
4.6163	24.2245
4.6122	24.3295
4.6081	24.4291
4.6040	24.5236
4.6000	24.6130
4.5959	24.6955
4.5918	24.7697
4.5877	24.8347
4.5837	24.8913
4.5796	24.9416
4.5756	24.9865
4.5716	25.0261
4.5675	25.0583
4.5635	25.0805
4.5595	25.0903
4.5555	25.0849
4.5515	25.0632
4.5475	25.0253
4.5435	24.9711
4.5395	24.9008
4.5356	24.8137
4.5316	24.7094
4.5276	24.5866
4.5237	24.4428
4.5198	24.2787
4.5158	24.0971
4.5119	23.9050
4.5080	23.7125
4.5040	23.5322
4.5001	23.3754
4.4962	23.2480
4.4923	23.1498
4.4884	23.0764
4.4846	23.0195
4.4807	22.9736
4.4768	22.9389
4.4730	22.9211
4.4691	22.9316
4.4652	22.9792
4.4614	23.0678
4.4576	23.1916
4.4537	23.3361
4.4499	23.4855
4.4461	23.6257
4.4423	23.7499
4.4385	23.8596
4.4347	23.9621
4.4309	24.0654
4.4271	24.1752
4.4233	24.2946
4.4196	24.4233
4.4158	24.5590
4.4120	24.6987
4.4083	24.8398
4.4045	24.9809
4.4008	25.1220
4.3971	25.2641
4.3934	25.4091
4.3896	25.5595
4.3859	25.7162
4.3822	25.8771
4.3785	26.0383
4.3748	26.1955
4.3711	26.3451
4.3674	26.4853
4.3638	26.6164
4.3601	26.7392
4.3564	26.8544
4.3528	26.9611
4.3491	27.0585
4.3455	27.1462
4.3418	27.2228
4.3382	27.2880
4.3346	27.3432
4.3310	27.3891
4.3273	27.4257
4.3237	27.4528
4.3201	27.4706
4.3165	27.4792
4.3129	27.4784
4.3094	27.4701
4.3058	27.4576
4.3022	27.4425
4.2986	27.4242
4.2951	27.4008
4.2915	27.3696
4.2880	27.3293
4.2844	27.2834
4.2809	27.2429
4.2774	27.2231
4.2738	27.2363
4.2703	27.2895
4.2668	27.3803
4.2633	27.4970
4.2598	27.6210
4.2563	27.7345
4.2528	27.8254
4.2493	27.8898
4.2458	27.9299
4.2424	27.9528
4.2389	27.9682
4.2354	27.9848
4.2320	28.0080
4.2285	28.0390
4.2251	28.0761
4.2216	28.1164
4.2182	28.1550
4.2148	28.1874
4.2113	28.2125
4.2079	28.2314
4.2045	28.2455
4.2011	28.2580
4.1977	28.2712
4.1943	28.2875
4.1909	28.3095
4.1875	28.3375
4.1841	28.3720
4.1808	28.4113
4.1774	28.4528
4.1740	28.4928
4.1707	28.5287
4.1673	28.5593
4.1640	28.5854
4.1606	28.6081
4.1573	28.6275
4.1540	28.6445
4.1506	28.6589
4.1473	28.6728
4.1440	28.6886
4.1407	28.7089
4.1374	28.7353
4.1341	28.7674
4.1308	28.8019
4.1275	28.8346
4.1242	28.8632
4.1209	28.8869
4.1177	28.9067
4.1144	28.9245
4.1111	28.9435
4.1079	28.9645
4.1046	28.9867
4.1014	29.0090
4.0981	29.0300
4.0949	29.0478
4.0917	29.0610
4.0884	29.0700
4.0852	29.0761
4.0820	29.0810
4.0788	29.0854
4.0756	29.0900
4.0724	29.0939
4.0692	29.0954
4.0660	29.0920
4.0628	29.0832
4.0596	29.0700
4.0565	29.0539
4.0533	29.0378
4.0501	29.0241
4.0470	29.0129
4.0438	29.0021
4.0407	28.9892
4.0375	28.9718
4.0344	28.9491
4.0312	28.9223
4.0281	28.8937
4.0250	28.8669
4.0218	28.8426
4.0187	28.8207
4.0156	28.8005
4.0125	28.7814
4.0094	28.7629
4.0063	28.7443
4.0032	28.7258
4.0001	28.7067
3.9970	28.6862
3.9940	28.6640
3.9909	28.6426
3.9878	28.6242
3.9847	28.6098
3.9817	28.6003
3.9786	28.5949
3.9756	28.5907
3.9725	28.5861
3.9695	28.5800
3.9665	28.5734
3.9634	28.5658
3.9604	28.5568
3.9574	28.5461
3.9544	28.5329
3.9513	28.5174
3.9483	28.5014
3.9453	28.4863
3.9423	28.4731
3.9393	28.4609
3.9363	28.4487
3.9333	28.4352
3.9304	28.4191
3.9274	28.4001
3.9244	28.3779
3.9214	28.3520
3.9185	28.3212
3.9155	28.2851
3.9126	28.2453
3.9096	28.2025
3.9067	28.1586
3.9037	28.1147
3.9008	28.0710
3.8979	28.0268
3.8949	27.9804
3.8920	27.9311
3.8891	27.8796
3.8862	27.8266
3.8833	27.7729
3.8804	27.7201
3.8775	27.6701
3.8746	27.6240
3.8717	27.5820
3.8688	27.5424
3.8659	27.5019
3.8630	27.4579
3.8601	27.4075
3.8573	27.3512
3.8544	27.2922
3.8515	27.2360
3.8487	27.1865
3.8458	27.1435
3.8430	27.1049
3.8401	27.0678
3.8373	27.0285
3.8344	26.9858
3.8316	26.9408
3.8288	26.8957
3.8259	26.8512
3.8231	26.8073
3.8203	26.7634
3.8175	26.7192
3.8147	26.6738
3.8119	26.6266
3.8091	26.5778
3.8063	26.5268
3.8035	26.4723
3.8007	26.4150
3.7979	26.3549
3.7951	26.2929
3.7924	26.2282
3.7896	26.1616
3.7868	26.0925
3.7841	26.0222
3.7813	25.9521
3.7785	25.8832
3.7758	25.8154
3.7730	25.7476
3.7703	25.6784
3.7676	25.6066
3.7648	25.5339
3.7621	25.4631
3.7594	25.3967
3.7566	25.3351
3.7539	25.2756
3.7512	25.2133
3.7485	25.1452
3.7458	25.0698
3.7431	24.9887
3.7404	24.9064
3.7377	24.8283
3.7350	24.7576
3.7323	24.6957
3.7296	24.6415
3.7269	24.5922
3.7242	24.5441
3.7216	24.4931
3.7189	24.4365
3.7162	24.3737
3.7136	24.3058
3.7109	24.2353
3.7083	24.1657
3.7056	24.1003
3.7030	24.0390
3.7003	23.9807
3.6977	23.9233
3.6950	23.8642
3.6924	23.8002
3.6898	23.7314
3.6872	23.6586
3.6845	23.5842
3.6819	23.5102
3.6793	23.4399
3.6767	23.3764
3.6741	23.3195
3.6715	23.2663
3.6689	23.2136
3.6663	23.1581
3.6637	23.0964
3.6611	23.0261
3.6585	22.9496
3.6560	22.8708
3.6534	22.7919
3.6508	22.7148
3.6482	22.6418
3.6457	22.5737
3.6431	22.5082
3.6406	22.4428
3.6380	22.3759
3.6355	22.3054
3.6329	22.2302
3.6304	22.1513
3.6278	22.0717
3.6253	21.9931
3.6227	21.9162
3.6202	21.8405
3.6177	21.7646
3.6152	21.6870
3.6127	21.6079
3.6101	21.5292
3.6076	21.4528
3.6051	21.3803
3.6026	21.3102
3.6001	21.2399
3.5976	21.1667
3.5951	21.0869
3.5926	21.0004
3.5901	20.9094
3.5876	20.8171
3.5852	20.7276
3.5827	20.6433
3.5802	20.5642
3.5777	20.4885
3.5753	20.4133
3.5728	20.3352
3.5704	20.2534
3.5679	20.1672
3.5654	20.0781
3.5630	19.9870
3.5605	19.8957
3.5581	19.8054
3.5557	19.7165
3.5532	19.6289
3.5508	19.5419
3.5484	19.4548
3.5459	19.3666
3.5435	19.2768
3.5411	19.1853
3.5387	19.0922
3.5363	18.9968
3.5338	18.8981
3.5314	18.7961
3.5290	18.6904
3.5266	18.5793
3.5242	18.4614
3.5218	18.3339
3.5195	18.1953
3.5171	18.0449
3.5147	17.8869
3.5123	17.7312
3.5099	17.5888
3.5075	17.4685
3.5052	17.3750
3.5028	17.3064
3.5004	17.2548
3.4981	17.2104
3.4957	17.1630
3.4934	17.1074
3.4910	17.0417
3.4887	16.9668
3.4863	16.8864
3.4840	16.8051
3.4816	16.7268
3.4793	16.6528
3.4770	16.5822
3.4746	16.5127
3.4723	16.4419
3.4700	16.3689
3.4677	16.2939
3.4653	16.2185
3.4630	16.1430
3.4607	16.0678
3.4584	15.9907
3.4561	15.9108
3.4538	15.8275
3.4515	15.7417
3.4492	15.6530
3.4469	15.5622
3.4446	15.4692
3.4423	15.3733
3.4400	15.2729
3.4378	15.1677
3.4355	15.0571
3.4332	14.9411
3.4309	14.8203
3.4287	14.6977
3.4264	14.5774
3.4241	14.4636
3.4219	14.3606
3.4196	14.2714
3.4174	14.1965
3.4151	14.1335
3.4129	14.0800
3.4106	14.0346
3.4084	13.9948
3.4061	13.9599
3.4039	13.9301
3.4017	13.9055
3.3994	13.8825
3.3972	13.8591
3.3950	13.8337
3.3928	13.8049
3.3906	13.7722
3.3883	13.7356
3.3861	13.6970
3.3839	13.6565
3.3817	13.6140
3.3795	13.5705
3.3773	13.5283
3.3751	13.4887
3.3729	13.4519
3.3707	13.4170
3.3685	13.3838
3.3663	13.3501
3.3641	13.3130
3.3620	13.2724
3.3598	13.2295
3.3576	13.1848
3.3554	13.1394
3.3533	13.0957
3.3511	13.0564
3.3489	13.0222
3.3468	12.9900
3.3446	12.9572
3.3425	12.9196
3.3403	12.8737
3.3382	12.8183
3.3360	12.7566
3.3339	12.6936
3.3317	12.6328
3.3296	12.5752
3.3274	12.5202
3.3253	12.4653
3.3232	12.4079
3.3210	12.3475
3.3189	12.2854
3.3168	12.2214
3.3147	12.1560
3.3126	12.0883
3.3104	12.0175
3.3083	11.9428
3.3062	11.8657
3.3041	11.7893
3.3020	11.7160
3.2999	11.6465
3.2978	11.5796
3.2957	11.5134
3.2936	11.4458
3.2915	11.3755
3.2894	11.3039
3.2874	11.2324
3.2853	11.1609
3.2832	11.0901
3.2811	11.0202
3.2790	10.9511
3.2770	10.8823
3.2749	10.8147
3.2728	10.7483
3.2708	10.6816
3.2687	10.6120
3.2666	10.5395
3.2646	10.4651
3.2625	10.3901
3.2605	10.3169
3.2584	10.2488
3.2564	10.1870
3.2543	10.1303
3.2523	10.0759
3.2503	10.0219
3.2482	9.9674
3.2462	9.9118
3.2442	9.8559
3.2421	9.8008
3.2401	9.7468
3.2381	9.6936
3.2361	9.6386
3.2340	9.5813
3.2320	9.5215
3.2300	9.4604
3.2280	9.3991
3.2260	9.3393
3.2240	9.2824
3.2220	9.2287
3.2200	9.1772
3.2180	9.1272
3.2160	9.0781
3.2140	9.0278
3.2120	8.9751
3.2100	8.9192
3.2080	8.8615
3.2060	8.8034
3.2040	8.7478
3.2021	8.6980
3.2001	8.6548
3.1981	8.6152
3.1961	8.5764
3.1942	8.5349
3.1922	8.4878
3.1902	8.4336
3.1883	8.3752
3.1863	8.3181
3.1844	8.2644
3.1824	8.2153
3.1805	8.1721
3.1785	8.1340
3.1766	8.0964
3.1746	8.0552
3.1727	8.0090
3.1707	7.9590
3.1688	7.9053
3.1669	7.8511
3.1649	7.8003
3.1630	7.7546
3.1611	7.7121
3.1591	7.6704
3.1572	7.6282
3.1553	7.5854
3.1534	7.5420
3.1515	7.4997
3.1495	7.4604
3.1476	7.4238
3.1457	7.3874
3.1438	7.3489
3.1419	7.3075
3.1400	7.2646
3.1381	7.2217
3.1362	7.1809
3.1343	7.1448
3.1324	7.1133
3.1305	7.0840
3.1286	7.0539
3.1268	7.0222
3.1249	6.9883
3.1230	6.9531
3.1211	6.9187
3.1192	6.8872
3.1174	6.8575
3.1155	6.8286
3.1136	6.7995
3.1117	6.7710
3.1099	6.7444
3.1080	6.7217
3.1061	6.7034
3.1043	6.6875
3.1024	6.6704
3.1006	6.6484
3.0987	6.6218
3.0969	6.5923
3.0950	6.5639
3.0932	6.5403
3.0913	6.5215
3.0895	6.5061
3.0876	6.4905
3.0858	6.4714
3.0840	6.4480
3.0821	6.4225
3.0803	6.3987
3.0785	6.3789
3.0766	6.3633
3.0748	6.3508
3.0730	6.3386
3.0712	6.3240
3.0694	6.3059
3.0675	6.2876
3.0657	6.2722
3.0639	6.2619
3.0621	6.2568
3.0603	6.2549
3.0585	6.2505
3.0567	6.2395
3.0549	6.2197
3.0531	6.1941
3.0513	6.1672
3.0495	6.1445
3.0477	6.1296
3.0459	6.1228
3.0441	6.1203
3.0423	6.1179
3.0406	6.1113
3.0388	6.0993
3.0370	6.0823
3.0352	6.0630
3.0334	6.0434
3.0317	6.0244
3.0299	6.0071
3.0281	5.9936
3.0264	5.9848
3.0246	5.9814
3.0228	5.9834
3.0211	5.9897
3.0193	5.9956
3.0176	5.9963
3.0158	5.9892
3.0140	5.9743
3.0123	5.9529
3.0105	5.9287
3.0088	5.9062
3.0070	5.8884
3.0053	5.8757
3.0036	5.8672
3.0018	5.8611
3.0001	5.8545
2.9984	5.8457
2.9966	5.8340
2.9949	5.8191
2.9932	5.8013
2.9914	5.7817
2.9897	5.7617
2.9880	5.7419
2.9863	5.7234
2.9845	5.7077
2.9828	5.6970
2.9811	5.6899
2.9794	5.6848
2.9777	5.6780
2.9760	5.6662
2.9743	5.6474
2.9726	5.6233
2.9709	5.5979
2.9692	5.5764
2.9675	5.5618
2.9658	5.5539
2.9641	5.5513
2.9624	5.5515
2.9607	5.5530
2.9590	5.5549
2.9573	5.5564
2.9556	5.5564
2.9539	5.5530
2.9523	5.5439
2.9506	5.5305
2.9489	5.5156
2.9472	5.5046
2.9455	5.5012
2.9439	5.5061
2.9422	5.5168
2.9405	5.5288
2.9389	5.5383
2.9372	5.5427
2.9355	5.5452
2.9339	5.5503
2.9322	5.5596
2.9306	5.5701
2.9289	5.5774
2.9272	5.5776
2.9256	5.5688
2.9239	5.5530
2.9223	5.5359
2.9207	5.5246
2.9190	5.5207
2.9174	5.5234
2.9157	5.5315
2.9141	5.5442
2.9124	5.5618
2.9108	5.5837
2.9092	5.6081
2.9075	5.6296
2.9059	5.6428
2.9043	5.6462
2.9027	5.6409
2.9010	5.6318
2.8994	5.6255
2.8978	5.6272
2.8962	5.6396
2.8946	5.6616
2.8929	5.6919
2.8913	5.7280
2.8897	5.7651
2.8881	5.7981
2.8865	5.8235
2.8849	5.8410
2.8833	5.8524
2.8817	5.8618
2.8801	5.8735
2.8785	5.8884
2.8769	5.9028
2.8753	5.9143
2.8737	5.9226
2.8721	5.9285
2.8705	5.9348
2.8689	5.9477
2.8673	5.9690
2.8658	5.9949
2.8642	6.0207
2.8626	6.0437
2.8610	6.0630
2.8594	6.0779
2.8579	6.0896
2.8563	6.1023
2.8547	6.1162
2.8531	6.1301
2.8516	6.1435
2.8500	6.1560
2.8484	6.1677
2.8469	6.1770
2.8453	6.1826
2.8437	6.1831
2.8422	6.1797
2.8406	6.1736
2.8391	6.1676
2.8375	6.1628
2.8360	6.1611
2.8344	6.1628
2.8329	6.1650
2.8313	6.1667
2.8298	6.1702
2.8282	6.1767
2.8267	6.1858
2.8252	6.1960
2.8236	6.2053
2.8221	6.2107
2.8205	6.2074
2.8190	6.1946
2.8175	6.1760
2.8159	6.1560
2.8144	6.1387
2.8129	6.1269
2.8114	6.1211
2.8098	6.1191
2.8083	6.1150
2.8068	6.1035
2.8053	6.0837
2.8038	6.0554
2.8022	6.0205
2.8007	5.9822
2.7992	5.9460
2.7977	5.9162
2.7962	5.8926
2.7947	5.8730
2.7932	5.8530
2.7917	5.8247
2.7902	5.7805
2.7887	5.7182
2.7872	5.6416
2.7857	5.5571
2.7842	5.4724
2.7827	5.3945
2.7812	5.3247
2.7797	5.2585
2.7782	5.1911
2.7767	5.1208
2.7752	5.0471
2.7738	4.9678
2.7723	4.8818
2.7708	4.7851
2.7693	4.6728
2.7678	4.5408
2.7664	4.3933
2.7649	4.2456
2.7634	4.1162
2.7619	4.0234
2.7605	3.9802
2.7590	3.9907
2.7575	4.0471
2.7561	4.1355
2.7546	4.2402
2.7531	4.3518
2.7517	4.4641
2.7502	4.5749
2.7488	4.6858
2.7473	4.7971
2.7458	4.9067
2.7444	5.0120
2.7429	5.1103
2.7415	5.2043
2.7400	5.2986
2.7386	5.4018
2.7371	5.5239
2.7357	5.6702
2.7343	5.8415
2.7328	6.0329
2.7314	6.2366
2.7299	6.4455
2.7285	6.6594
2.7271	6.8850
2.7256	7.1343
2.7242	7.4182
2.7228	7.7405
2.7213	8.0942
2.7199	8.4609
2.7185	8.8137
2.7171	9.1238
2.7156	9.3635
2.7142	9.5083
2.7128	9.5385
2.7114	9.4458
2.7100	9.2409
2.7085	8.9582
2.7071	8.6572
2.7057	8.4162
2.7043	8.3196
2.7029	8.4389
2.7015	8.8183
2.7001	9.4704
2.6987	10.3838
2.6973	11.5285
2.6959	12.8650
2.6945	14.3515
2.6931	15.9482
2.6917	17.6132
2.6903	19.3005
2.6889	20.9616
2.6875	22.5526
2.6861	24.0370
2.6847	25.3901
2.6833	26.6013
2.6819	27.6767
2.6805	28.6326
2.6791	29.4887
2.6778	30.2621
2.6764	30.9645
2.6750	31.6015
2.6736	32.1767
2.6722	32.6960
2.6709	33.1691
2.6695	33.6090
2.6681	34.0299
2.6667	34.4421
2.6654	34.8459
2.6640	35.2340
2.6626	35.5985
2.6613	35.9345
2.6599	36.2399
2.6585	36.5176
2.6572	36.7758
2.6558	37.0216
2.6545	37.2565
2.6531	37.4774
2.6517	37.6815
2.6504	37.8683
2.6490	38.0387
2.6477	38.1969
2.6463	38.3490
2.6450	38.5009
2.6436	38.6544
2.6423	38.8065
2.6409	38.9518
2.6396	39.0851
2.6382	39.2030
2.6369	39.3082
2.6356	39.4071
2.6342	39.5094
2.6329	39.6247
2.6315	39.7521
2.6302	39.8830
2.6289	40.0053
2.6275	40.1068
2.6262	40.1827
2.6249	40.2343
2.6236	40.2716
2.6222	40.3095
2.6209	40.3551
2.6196	40.4098
2.6183	40.4725
2.6169	40.5397
2.6156	40.6066
2.6143	40.6698
2.6130	40.7301
2.6117	40.7907
2.6103	40.8512
2.6090	40.9113
2.6077	40.9740
2.6064	41.0412
2.6051	41.1117
2.6038	41.1818
2.6025	41.2470
2.6012	41.3038
2.5999	41.3488
2.5986	41.3810
2.5973	41.4075
2.5960	41.4381
2.5947	41.4774
2.5934	41.5238
2.5921	41.5719
2.5908	41.6163
2.5895	41.6517
2.5882	41.6764
2.5869	41.6964
2.5856	41.7227
2.5843	41.7627
2.5830	41.8158
2.5817	41.8756
2.5805	41.9340
2.5792	41.9813
2.5779	42.0097
2.5766	42.0206
2.5753	42.0265
2.5741	42.0387
2.5728	42.0619
2.5715	42.0966
2.5702	42.1386
2.5690	42.1801
2.5677	42.2142
2.5664	42.2431
2.5651	42.2743
2.5639	42.3121
2.5626	42.3537
2.5613	42.3952
2.5601	42.4310
2.5588	42.4579
2.5575	42.4765
2.5563	42.4923
2.5550	42.5116
2.5538	42.5350
2.5525	42.5577
2.5513	42.5748
2.5500	42.5841
2.5487	42.5888
2.5475	42.5929
2.5462	42.6002
2.5450	42.6151
2.5437	42.6377
2.5425	42.6652
2.5413	42.6945
2.5400	42.7276
2.5388	42.7680
2.5375	42.8117
2.5363	42.8505
2.5350	42.8773
2.5338	42.8864
2.5326	42.8754
2.5313	42.8522
2.5301	42.8317
2.5289	42.8285
2.5276	42.8477
2.5264	42.8842
2.5252	42.9249
2.5239	42.9569
2.5227	42.9713
2.5215	42.9662
2.5202	42.9496
2.5190	42.9357
2.5178	42.9354
2.5166	42.9508
2.5154	42.9774
2.5141	43.0119
2.5129	43.0480
2.5117	43.0777
2.5105	43.0985
2.5093	43.1117
2.5081	43.1207
2.5068	43.1266
2.5056	43.1315
2.5044	43.1415
2.5032	43.1596
2.5020	43.1840
2.5008	43.2113
2.4996	43.2394
2.4984	43.2682
2.4972	43.2963
2.4960	43.3231
2.4948	43.3490
2.4936	43.3739
2.4924	43.3971
2.4912	43.4171
2.4900	43.4349
2.4888	43.4542
2.4876	43.4776
2.4864	43.5067
2.4852	43.5419
2.4840	43.5834
2.4828	43.6293
2.4816	43.6742
2.4805	43.7127
2.4793	43.7418
2.4781	43.7619
2.4769	43.7780
2.4757	43.7968
2.4745	43.8244
2.4734	43.8600
2.4722	43.8988
2.4710	43.9354
2.4698	43.9657
2.4686	43.9904
2.4675	44.0150
2.4663	44.0460
2.4651	44.0851
2.4640	44.1288
2.4628	44.1713
2.4616	44.2084
2.4604	44.2376
2.4593	44.2597
2.4581	44.2785
2.4569	44.3021
2.4558	44.3341
2.4546	44.3732
2.4535	44.4166
2.4523	44.4594
2.4511	44.4950
2.4500	44.5182
2.4488	44.5302
2.4477	44.5397
2.4465	44.5541
2.4454	44.5790
2.4442	44.6188
2.4431	44.6713
2.4419	44.7311
2.4408	44.7904
2.4396	44.8449
2.4385	44.8925
2.4373	44.9337
2.4362	44.9730
2.4350	45.0148
2.4339	45.0631
2.4327	45.1244
2.4316	45.2003
2.4305	45.2882
2.4293	45.3842
2.4282	45.4847
2.4270	45.5836
2.4259	45.6735
2.4248	45.7513
2.4236	45.8177
2.4225	45.8693
2.4214	45.9056
2.4202	45.9340
2.4191	45.9650
2.4180	46.0043
2.4169	46.0565
2.4157	46.1263
2.4146	46.2089
2.4135	46.2907
2.4124	46.3605
2.4112	46.4147
2.4101	46.4524
2.4090	46.4750
2.4079	46.4896
2.4068	46.5078
2.4056	46.5338
2.4045	46.5670
2.4034	46.6071
2.4023	46.6503
2.4012	46.6888
2.4001	46.7142
2.3990	46.7223
2.3979	46.7142
2.3967	46.6940
2.3956	46.6703
2.3945	46.6547
2.3934	46.6552
2.3923	46.6732
2.3912	46.7027
2.3901	46.7327
2.3890	46.7521
2.3879	46.7543
2.3868	46.7423
2.3857	46.7245
2.3846	46.7137
2.3835	46.7216
2.3824	46.7516
2.3813	46.8002
2.3802	46.8597
2.3791	46.9232
2.3781	46.9843
2.3770	47.0365
2.3759	47.0785
2.3748	47.1107
2.3737	47.1334
2.3726	47.1498
2.3715	47.1635
2.3704	47.1796
2.3694	47.1993
2.3683	47.2201
2.3672	47.2399
2.3661	47.2572
2.3650	47.2723
2.3640	47.2872
2.3629	47.3016
2.3618	47.3160
2.3607	47.3280
2.3597	47.3300
2.3586	47.3165
2.3575	47.2892
2.3564	47.2557
2.3554	47.2242
2.3543	47.2023
2.3532	47.1957
2.3522	47.2062
2.3511	47.2262
2.3500	47.2496
2.3490	47.2772
2.3479	47.3107
2.3468	47.3490
2.3458	47.3910
2.3447	47.4330
2.3436	47.4678
2.3426	47.4921
2.3415	47.5106
2.3405	47.5360
2.3394	47.5758
2.3384	47.6339
2.3373	47.7115
2.3363	47.7992
2.3352	47.8839
2.3342	47.9567
2.3331	48.0167
2.3321	48.0660
2.3310	48.1068
2.3300	48.1442
2.3289	48.1847
2.3279	48.2296
2.3268	48.2772
2.3258	48.3251
2.3247	48.3719
2.3237	48.4175
2.3226	48.4642
2.3216	48.5150
2.3206	48.5704
2.3195	48.6259
2.3185	48.6766
2.3175	48.7159
2.3164	48.7394
2.3154	48.7499
2.3144	48.7594
2.3133	48.7784
2.3123	48.8092
2.3113	48.8488
2.3102	48.8944
2.3092	48.9398
2.3082	48.9794
2.3071	49.0148
2.3061	49.0546
2.3051	49.1022
2.3041	49.1539
2.3030	49.2052
2.3020	49.2538
2.3010	49.2953
2.3000	49.3274
2.2990	49.3522
2.2979	49.3754
2.2969	49.3995
2.2959	49.4259
2.2949	49.4571
2.2939	49.4969
2.2929	49.5463
2.2918	49.6012
2.2908	49.6569
2.2898	49.7078
2.2888	49.7472
2.2878	49.7706
2.2868	49.7801
2.2858	49.7816
2.2848	49.7821
2.2838	49.7872
2.2828	49.7994
2.2818	49.8197
2.2808	49.8441
2.2798	49.8705
2.2787	49.8975
2.2777	49.9230
2.2767	49.9447
2.2757	49.9601
2.2747	49.9650
2.2738	49.9596
2.2728	49.9478
2.2718	49.9415
2.2708	49.9510
2.2698	49.9799
2.2688	50.0240
2.2678	50.0702
2.2668	50.1007
2.2658	50.1051
2.2648	50.0825
2.2638	50.0470
2.2628	50.0162
2.2618	50.0030
2.2609	50.0111
2.2599	50.0345
2.2589	50.0612
2.2579	50.0790
2.2569	50.0795
2.2559	50.0616
2.2550	50.0278
2.2540	49.9818
2.2530	49.9288
2.2520	49.8793
2.2510	49.8419
2.2501	49.8202
2.2491	49.8107
2.2481	49.8060
2.2471	49.8007
2.2462	49.7916
2.2452	49.7843
2.2442	49.7862
2.2433	49.7999
2.2423	49.8175
2.2413	49.8263
2.2403	49.8197
2.2394	49.8021
2.2384	49.7838
2.2374	49.7758
2.2365	49.7816
2.2355	49.7921
2.2345	49.7902
2.2336	49.7640
2.2326	49.7169
2.2317	49.6581
2.2307	49.5985
2.2297	49.5446
2.2288	49.4989
2.2278	49.4581
2.2269	49.4181
2.2259	49.3810
2.2250	49.3466
2.2240	49.3076
2.2231	49.2550
2.2221	49.1800
2.2211	49.0846
2.2202	48.9801
2.2192	48.8837
2.2183	48.8082
2.2173	48.7504
2.2164	48.6937
2.2155	48.6158
2.2145	48.4978
2.2136	48.3353
2.2126	48.1400
2.2117	47.9371
2.2107	47.7504
2.2098	47.5958
2.2088	47.4857
2.2079	47.4271
2.2070	47.4191
2.2060	47.4562
2.2051	47.5321
2.2041	47.6415
2.2032	47.7740
2.2023	47.9186
2.2013	48.0668
2.2004	48.2127
2.1995	48.3470
2.1985	48.4603
2.1976	48.5499
2.1967	48.6207
2.1957	48.6793
2.1948	48.7357
2.1939	48.7992
2.1930	48.8780
2.1920	48.9767
2.1911	49.0900
2.1902	49.2108
2.1893	49.3295
2.1883	49.4335
2.1874	49.5127
2.1865	49.5670
2.1856	49.6080
2.1846	49.6526
2.1837	49.7078
2.1828	49.7736
2.1819	49.8468
2.1810	49.9166
2.1800	49.9730
2.1791	50.0172
2.1782	50.0574
2.1773	50.1009
2.1764	50.1464
2.1755	50.1910
2.1746	50.2347
2.1736	50.2745
2.1727	50.3074
2.1718	50.3383
2.1709	50.3695
2.1700	50.4015
2.1691	50.4335
2.1682	50.4650
2.1673	50.4965
2.1664	50.5292
2.1655	50.5646
2.1646	50.6073
2.1637	50.6608
2.1628	50.7240
2.1619	50.7925
2.1610	50.8577
2.1601	50.9117
2.1592	50.9530
2.1583	50.9838
2.1574	51.0148
2.1565	51.0572
2.1556	51.1112
2.1547	51.1683
2.1538	51.2186
2.1529	51.2555
2.1520	51.2787
2.1511	51.2972
2.1502	51.3265
2.1493	51.3722
2.1484	51.4239
2.1475	51.4654
2.1466	51.4891
2.1458	51.4965
2.1449	51.4967
2.1440	51.5089
2.1431	51.5487
2.1422	51.6110
2.1413	51.6761
2.1404	51.7257
2.1396	51.7535
2.1387	51.7625
2.1378	51.7621
2.1369	51.7655
2.1360	51.7775
2.1352	51.7865
2.1343	51.7776
2.1334	51.7467
2.1325	51.6993
2.1316	51.6517
2.1308	51.6239
2.1299	51.6346
2.1290	51.6875
2.1281	51.7692
2.1273	51.8607
2.1264	51.9437
2.1255	52.0004
2.1247	52.0238
2.1238	52.0184
2.1229	51.9930
2.1220	51.9540
2.1212	51.9049
2.1203	51.8512
2.1194	51.7980
2.1186	51.7474
2.1177	51.7052
2.1168	51.6777
2.1160	51.6686
2.1151	51.6771
2.1143	51.7035
2.1134	51.7496
2.1125	51.8155
2.1117	51.8917
2.1108	51.9640
2.1100	52.0148
2.1091	52.0267
2.1082	51.9923
2.1074	51.9217
2.1065	51.8431
2.1057	51.7838
2.1048	51.7567
2.1040	51.7655
2.1031	51.8009
2.1023	51.8461
2.1014	51.8868
2.1005	51.9200
2.0997	51.9518
2.0988	51.9808
2.0980	51.9962
2.0971	51.9901
2.0963	51.9564
2.0955	51.8949
2.0946	51.8197
2.0938	51.7533
2.0929	51.7203
2.0921	51.7284
2.0912	51.7667
2.0904	51.8170
2.0895	51.8588
2.0887	51.8810
2.0879	51.8934
2.0870	51.9103
2.0862	51.9430
2.0853	51.9986
2.0845	52.0453
2.0837	52.0621
2.0828	52.0621
2.0820	51.9943
2.0812	51.9523
2.0803	51.9869
2.0795	51.9103
2.0760	51.9776
2.0720	51.8208
2.0680	51.8943
2.0640	51.5743
2.0600	51.7589
2.0560	51.5013
2.0520	51.6687
2.0480	51.8823
2.0440	51.2755
2.0400	50.8606
2.0360	50.5846
2.0320	50.3702
2.0280	50.6301
2.0240	50.5473
2.0200	50.4458
2.0160	50.3612
2.0120	50.3783
2.0080	50.2567
2.0040	50.1542
2.0000	49.9571
1.9960	49.9571
1.9920	49.7216
1.9880	49.2359
1.9840	48.8523
1.9800	48.7008
1.9760	48.5300
1.9720	48.2982
1.9680	47.6259
1.9640	47.3992
1.9600	47.4552
1.9560	47.2505
1.9520	47.0695
1.9480	47.0186
1.9440	46.7332
1.9400	46.9029
1.9360	46.3732
1.9320	45.9522
1.9280	45.6855
1.9240	45.4425
1.9200	45.1457
1.9160	44.8261
1.9120	45.0404
1.9080	45.3496
1.9040	45.2037
1.9000	46.0051
1.8960	46.9485
1.8920	48.0929
1.8880	49.3889
1.8840	49.9281
1.8800	50.8067
1.8760	51.8620
1.8720	52.1937
1.8680	52.7242
1.8640	53.3817
1.8600	53.6255
1.8560	53.5802
1.8520	53.6054
1.8480	53.7909
1.8440	53.8681
1.8400	53.6871
1.8360	53.8851
1.8320	54.1431
1.8280	54.0924
1.8240	53.9839
1.8200	53.8636
1.8160	53.8150
1.8120	53.9250
1.8080	53.7250
1.8040	53.6054
1.8000	53.8046
1.7960	53.8192
1.7920	53.7398
1.7880	53.8144
1.7840	53.7697
1.7800	53.9997
1.7760	53.7401
1.7720	53.8503
1.7680	53.7608
1.7640	53.8367
1.7600	53.7467
1.7560	54.0312
1.7520	54.1203
1.7480	54.0317
1.7440	53.9106
1.7400	53.6404
1.7360	54.0924
1.7320	53.7859
1.7280	53.8774
1.7240	53.7934
1.7200	53.7713
1.7160	53.8008
1.7120	53.3810
1.7080	53.5306
1.7040	53.6054
1.7000	53.6203
1.6960	53.6352
1.6920	53.9053
1.6880	53.8304
1.6840	53.4998
1.6800	53.1981
1.6760	53.1823
1.6720	53.3094
1.6680	53.2280
1.6640	53.3180
1.6600	53.4144
1.6560	53.3167
1.6520	53.2265
1.6480	53.3180
1.6440	53.4986
1.6400	53.5656
1.6360	53.4138
1.6320	53.0350
1.6280	52.9610
1.6240	53.3167
1.6200	53.0651
1.6160	52.8029
1.6120	53.0810
1.6080	52.7268
1.6040	52.2858
1.6000	52.2562
1.5960	52.7534
1.5920	52.9034
1.5880	52.8733
1.5840	53.0262
1.5800	52.6901
1.5760	52.4640
1.5720	52.5704
1.5680	52.8133
1.5640	52.6601
1.5600	52.6433
1.5560	52.4524
1.5520	52.4226
1.5480	52.4597
1.5440	52.3701
1.5400	52.3873
1.5360	52.7737
1.5320	52.2758
1.5280	51.8844
1.5240	51.7371
1.5200	51.7011
1.5160	52.2509
1.5120	51.8227
1.5080	51.4429
1.5040	51.1320
1.5000	51.2011
1.4960	51.6985
1.4920	51.8565
1.4880	51.4692
1.4840	51.2111
1.4800	51.3005
1.4760	51.1029
1.4720	50.7761
1.4680	50.4995
1.4640	50.4494
1.4600	50.3531
1.4560	50.1705
1.4520	49.9972
1.4480	50.0123
1.4440	50.0352
1.4400	50.0214
1.4360	49.8031
1.4320	49.4883
1.4280	49.5781
1.4240	49.4052
1.4200	49.1251
1.4160	48.6970
1.4120	48.3560
1.4080	47.9295
1.4040	48.0783
1.4000	48.2707
1.3960	48.4916
1.3920	48.9205
1.3880	49.4050
1.3840	49.7955
1.3800	49.8611
1.3760	50.0315
1.3720	50.0721
1.3680	50.5583
1.3640	50.7279
1.3600	50.6520
1.3560	50.4850
1.3520	50.4104
1.3480	50.3439
1.3440	50.1619
1.3400	50.1533
1.3360	50.2276
1.3320	50.4300
1.3280	50.7237
1.3240	50.7637
1.3200	50.6246
1.3160	50.6837
1.3120	50.6837
1.3080	50.7933
1.3040	50.3738
1.3000	50.3229
1.2960	50.1619
1.2920	49.6546
1.2880	49.8233
1.2840	49.6148
1.2800	49.7289
1.2760	49.7425
1.2720	49.3747
1.2680	49.2622
1.2640	49.4339
1.2600	49.4398
1.2560	49.3862
1.2520	48.9491
1.2480	48.0156
1.2440	48.0441
1.2400	47.9894
1.2360	47.9631
1.2320	47.8109
1.2280	47.4754
1.2240	47.4063
1.2200	48.1427
1.2160	48.3620
1.2120	47.9928
1.2080	47.4304
1.2040	47.2623
1.2000	46.9422
1.1960	46.6638
1.1920	46.6085
1.1880	46.3873
1.1840	46.2216
1.1800	46.1943
1.1760	46.0853
1.1720	45.8957
1.1680	45.7855
1.1640	45.5084
1.1600	45.3914
1.1560	45.1620
1.1520	44.9128
1.1480	45.0523
1.1440	44.9376
1.1400	44.9055
1.1360	44.4951
1.1320	44.0960
1.1280	44.4985
1.1240	44.5526
1.1200	44.0332
1.1160	43.9013
1.1120	43.6122
1.1080	43.8064
1.1040	43.7475
1.1000	43.4468
1.0960	43.0666
1.0920	42.9343
1.0880	42.8091
1.0840	42.8988
1.0800	41.9603
1.0760	41.8731
1.0720	42.5679
1.0680	42.1290
1.0640	41.8989
1.0600	41.4009
1.0560	40.9674
1.0520	40.6585
1.0480	41.2068
1.0440	41.6308
1.0400	40.7988
1.0360	40.2790
1.0320	39.7619
1.0280	40.1574
1.0240	39.7622
1.0200	39.5319
1.0160	39.2595
1.0120	39.2659
1.0080	38.7358
1.0040	38.8269
1.0000	38.3003
0.9960	38.3884
0.9920	38.1568
0.9880	37.6209
0.9840	37.3096
0.9800	37.2304
0.9760	36.9990
0.9720	36.8827
0.9680	36.7385
0.9640	36.4616
0.9600	36.1997
0.9560	35.8969
0.9520	35.8714
0.9480	35.4972
0.9440	35.4254
0.9400	35.0338
0.9360	34.7337
0.9320	34.7530
0.9280	34.5226
0.9240	34.0561
0.9200	33.8935
0.9160	33.6090
0.9120	33.3038
0.9080	33.3141
0.9040	32.9413
0.9000	32.7495
0.8960	32.2605
0.8920	32.1634
0.8880	31.7359
0.8840	31.7636
0.8800	31.4104
0.8760	31.2778
0.8720	30.7471
0.8680	30.5710
0.8640	30.3561
0.8600	30.3002
0.8560	29.8836
0.8520	29.7648
0.8480	29.7919
0.8440	29.6733
0.8400	29.1134
0.8360	29.0121
0.8320	28.5728
0.8280	28.8326
0.8240	28.5114
0.8200	28.2207
0.8160	27.7572
0.8120	27.6755
0.8080	27.5557
0.8040	26.6795
0.8000	26.8268
0.7990	25.7545
0.7980	25.7486
0.7970	25.9351
0.7960	25.8752
0.7950	26.0915
0.7940	26.0112
0.7930	26.3331
0.7920	25.9111
0.7910	25.6542
0.7900	25.8353
0.7890	25.5602
0.7880	25.5164
0.7870	25.6919
0.7860	25.8758
0.7850	25.6614
0.7840	25.9334
0.7830	25.6945
0.7820	25.1606
0.7810	25.2357
0.7800	25.0975
0.7790	24.9781
0.7780	24.9594
0.7770	24.8135
0.7760	25.0529
0.7750	24.6938
0.7740	24.7392
0.7730	24.6285
0.7720	24.5278
0.7710	24.6198
0.7700	24.5372
0.7690	24.3993
0.7680	24.0590
0.7670	23.7553
0.7660	23.9395
0.7650	23.8559
0.7640	23.8740
0.7630	23.8379
0.7620	23.8740
0.7610	23.6883
0.7600	23.3949
0.7590	23.3949
0.7580	23.2752
0.7570	23.6465
0.7560	23.7189
0.7550	23.5263
0.7540	23.2972
0.7530	23.1165
0.7520	23.0138
0.7510	22.8932
0.7500	22.6674
0.7490	22.6849
0.7480	22.5996
0.7470	22.5647
0.7460	22.2725
0.7450	22.3243
0.7440	22.4633
0.7430	22.5332
0.7420	22.3599
0.7410	22.2911
0.7400	22.1182
0.7390	21.8594
0.7380	21.7387
0.7370	21.6518
0.7360	21.6179
0.7350	21.6179
0.7340	21.6089
0.7330	21.4634
0.7320	21.0683
0.7310	21.1432
0.7300	21.1097
0.7290	21.2183
0.7280	21.2687
0.7270	21.3285
0.7260	21.1901
0.7250	21.0184
0.7240	20.7429
0.7230	20.6053
0.7220	20.4843
0.7210	20.3797
0.7200	20.4780
0.7190	20.3141
0.7180	20.3238
0.7170	20.2586
0.7160	20.0326
0.7150	19.9276
0.7140	19.9027
0.7130	19.9188
0.7120	19.8777
0.7110	19.6808
0.7100	19.6335
0.7090	19.7179
0.7080	19.6605
0.7070	19.4163
0.7060	19.2200
0.7050	19.1572
0.7040	19.0512
0.7030	19.0825
0.7020	18.8699
0.7010	19.0029
0.7000	18.8967
0.6990	18.5953
0.6980	18.6957
0.6970	18.6313
0.6960	18.3510
0.6950	18.5960
0.6940	18.6922
0.6930	18.6150
0.6920	18.2564
0.6910	18.1632
0.6900	17.9468
0.6890	17.9316
0.6880	17.9621
0.6870	17.8534
0.6860	17.8514
0.6850	17.8974
0.6840	18.0687
0.6830	17.9436
0.6820	17.8667
0.6810	17.4019
0.6800	17.3722
0.6790	17.3678
0.6780	17.3979
0.6770	16.9482
0.6760	16.9852
0.6750	16.9411
0.6740	17.0294
0.6730	16.7955
0.6720	16.9280
0.6710	16.7296
0.6700	16.5179
0.6690	16.4977
0.6680	16.4747
0.6670	16.4081
0.6660	16.3650
0.6650	16.2310
0.6640	16.0498
0.6630	15.9105
0.6620	16.1386
0.6610	16.0847
0.6600	16.0274
0.6590	15.8592
0.6580	15.6464
0.6570	15.7324
0.6560	15.4831
0.6550	15.5248
0.6540	15.4972
0.6530	15.3440
0.6520	15.3440
0.6510	15.2188
0.6500	15.2681
0.6490	14.8295
0.6480	15.1151
0.6470	14.7621
0.6460	14.7621
0.6450	14.6106
0.6440	14.6774
0.6430	14.6909
0.6420	14.5258
0.6410	14.4595
0.6400	14.3745
0.6390	14.4805
0.6380	14.3755
0.6370	14.4156
0.6360	14.5542
0.6350	14.4998
0.6340	14.3605
0.6330	14.3470
0.6320	13.6287
0.6310	13.9305
0.6300	13.5287
0.6290	13.4030
0.6280	13.7843
0.6270	13.7580
0.6260	13.3651
0.6250	13.6537
0.6240	13.3524
0.6230	13.2396
0.6220	13.2396
0.6210	13.4031
0.6200	13.1907
0.6190	13.1907
0.6180	13.0147
0.6170	13.1796
0.6160	12.8611
0.6150	12.5234
0.6140	12.6247
0.6130	12.4992
0.6120	12.4992
0.6110	12.7768
0.6100	12.1532
0.6090	12.1532
0.6080	12.0048
0.6070	12.3038
0.6060	12.3038
0.6050	12.0665
0.6040	11.8018
0.6030	11.8600
0.6020	11.7812
0.6010	11.9416
0.6000	11.7843
0.5990	11.5665
0.5980	11.5323
0.5970	11.8062
0.5960	11.5567
0.5950	11.5212
0.5940	11.4507
0.5930	11.2396
0.5920	11.1800
0.5910	11.0620
0.5900	11.0159
0.5890	11.0389
0.5880	11.0736
0.5870	11.1619
0.5860	11.2446
0.5850	10.9623
0.5840	10.4433
0.5830	10.4877
0.5820	10.4211
0.5810	10.3364
0.5800	10.7847
0.5790	10.4837
0.5780	10.5329
0.5770	10.2050
0.5760	10.2991
0.5750	10.2546
0.5740	9.8637
0.5730	9.7269
0.5720	9.6866
0.5710	9.6351
0.5700	9.5717
0.5690	9.5922
0.5680	9.7085
0.5670	9.6038
0.5660	9.1509
0.5650	9.3313
0.5640	9.0798
0.5630	8.6477
0.5620	8.9946
0.5610	8.5897
0.5600	8.5214
0.5590	8.4526
0.5580	8.2562
0.5570	8.3517
0.5560	8.2189
0.5550	8.1819
0.5540	8.0588
0.5530	7.6807
0.5520	7.6897
0.5510	7.4965
0.5500	7.5588
0.5490	7.5238
0.5480	7.3184
0.5470	7.1932
0.5460	7.0420
0.5450	7.0506
0.5440	6.9774
0.5430	7.0122
0.5420	6.9948
0.5410	6.8605
0.5400	6.9036
0.5390	6.5005
0.5380	6.3499
0.5370	6.3665
0.5360	6.2081
0.5350	6.2162
0.5340	6.2655
0.5330	6.0381
0.5320	5.8480
0.5310	5.8320
0.5300	5.6910
0.5290	5.6753
0.5280	5.5503
0.5270	5.5580
0.5260	5.7067
0.5250	5.5580
0.5240	5.4406
0.5230	5.0778
0.5220	5.0852
0.5210	5.0142
0.5200	5.0516
0.5190	4.8628
0.5180	4.7367
0.5170	4.6798
0.5160	4.6580
0.5150	4.5462
0.5140	4.3561
0.5130	4.3490
0.5120	4.3843
0.5110	4.2864
0.5100	4.4056
0.5090	4.0861
0.5080	3.9603
0.5070	3.6956
0.5060	3.7415
0.5050	3.5314
0.5040	3.4246
0.5030	3.4183
0.5020	3.4687
0.5010	3.3486
0.5000	3.3423
0.4990	3.3423
0.4980	3.3820
0.4970	3.2407
0.4960	3.1167
0.4950	3.1603
0.4940	3.0458
0.4930	2.9633
0.4920	2.7955
0.4910	2.6430
0.4900	2.8073
0.4890	2.5509
0.4880	2.6872
0.4870	2.6930
0.4860	2.4134
0.4850	2.2927
0.4840	2.3312
0.4830	2.3257
0.4820	2.0668
0.4810	2.0937
0.4800	2.0937
0.4790	1.9454
0.4780	1.6339
0.4770	1.6388
0.4760	1.6486
0.4750	1.5010
0.4740	1.4963
0.4730	1.3829
0.4720	1.3736
0.4710	1.3690
0.4700	1.2371
0.4690	1.3690
0.4680	1.0796
0.4670	1.2417
0.4660	1.3783
0.4650	1.2553
0.4640	1.2291
0.4630	1.1101
0.4620	0.9216
0.4610	1.1014
0.4600	1.0745
0.4590	1.1290
0.4580	1.1894
0.4570	1.0388
0.4560	0.8988
0.4550	0.5694
0.4540	0.5730
0.4530	0.5839
0.4520	0.5766
0.4510	0.5875
0.4500	0.4666
0.4490	0.3327
0.4480	0.3361
0.4470	0.3125
0.4460	0.1446
0.4450	0.1604
0.4440	-0.0910
0.4430	-0.2626
0.4420	-0.3315
0.4410	-0.2571
0.4400	0.0154
0.4390	-0.2571
0.4380	-0.5798
0.4370	-0.5703
0.4360	-0.6907
0.4350	-0.6725
0.4340	-0.8532
0.4330	-0.8491
0.4320	-0.9813
0.4310	-1.1543
0.4300	-1.1455
0.4290	-1.4432
0.4280	-1.4548
0.4270	-1.4548
0.4260	-1.4951
0.4250	-1.6224
0.4240	-1.4461
0.4230	-1.7444
0.4220	-1.7342
0.4210	-2.0774
0.4200	-2.0754
0.4190	-2.0794
0.4180	-2.2557
0.4170	-2.1296
0.4160	-2.2596
0.4150	-2.4295
0.4140	-2.4286
0.4130	-2.2968
0.4120	-2.4671
0.4110	-2.4677
0.4100	-2.5980
0.4090	-2.4677
0.4080	-2.4671
0.4070	-2.9373
0.4060	-2.9385
0.4050	-2.9397
0.4040	-2.9385
0.4030	-2.9393
0.4020	-3.2051
0.4010	-3.3743
0.4000	-3.3811
