Name:  Brown to dark brown loamy sand
Type:  Soils
Class:  Utisol
Subclass:  Hapludult
Particle Size:  see additional information
Sample No.:  87P707
Owner:  JHU
Wavelength range:  All
Origin:  Dorchester Co., Md. via USDA Soil Conservation service.

Description:  Parent material: alluvium from mixed material.  
Physiography: upland slope in coastal plain, cropland.  Brown to dark 
brown loamy sand (sandy, siliceous, mesic psammentic).



Measurement:  Directional (10 degree) hemispherical reflectance
First Column:  X
Second Column:  Y
X Units:  Wavelength (micrometers)
Y Units:  Reflectance (percent)
First X Value:  14.0112
Last X Value:  0.4000
Number of X Values:  2844
Additional information:  87P707a.txt

14.0112	2.5574
13.9734	2.5566
13.9359	2.6238
13.8985	2.6909
13.8614	2.6955
13.8244	2.7244
13.7876	2.7991
13.7511	2.7651
13.7147	2.8069
13.6785	2.9153
13.6425	3.0098
13.6067	2.9639
13.5711	2.9397
13.5356	2.9668
13.5004	3.0759
13.4653	3.1118
13.4304	3.1226
13.3957	3.1457
13.3612	3.1826
13.3269	3.2212
13.2927	3.3152
13.2587	3.3635
13.2249	3.4416
13.1912	3.4883
13.1577	3.5085
13.1244	3.5466
13.0913	3.6421
13.0583	3.6785
13.0255	3.7593
12.9929	3.8830
12.9604	4.1130
12.9281	4.3967
12.8959	4.7139
12.8639	5.0320
12.8321	5.2595
12.8004	5.3122
12.7688	5.1721
12.7375	4.8242
12.7063	4.3965
12.6752	3.9714
12.6443	3.6699
12.6135	3.6811
12.5829	3.9446
12.5524	4.2280
12.5221	4.4350
12.4919	4.3874
12.4619	4.1814
12.4320	3.7859
12.4023	3.1113
12.3727	2.2322
12.3432	1.5435
12.3139	1.1836
12.2847	1.1162
12.2557	1.1648
12.2268	1.2705
12.1980	1.3599
12.1694	1.4656
12.1409	1.5618
12.1125	1.6516
12.0843	1.7651
12.0562	1.9209
12.0282	2.0215
12.0003	2.0972
11.9726	2.1472
11.9450	2.2358
11.9176	2.3179
11.8903	2.3933
11.8631	2.4438
11.8360	2.5444
11.8090	2.6186
11.7822	2.6929
11.7555	2.7495
11.7289	2.8142
11.7024	2.8608
11.6760	2.9123
11.6498	2.9612
11.6237	3.0229
11.5977	3.0749
11.5718	3.1326
11.5460	3.1611
11.5203	3.1916
11.4948	3.1650
11.4694	3.1804
11.4440	3.2505
11.4188	3.3047
11.3937	3.3210
11.3688	3.3433
11.3439	3.3586
11.3191	3.4194
11.2944	3.4236
11.2699	3.4582
11.2455	3.5054
11.2211	3.5193
11.1969	3.5305
11.1727	3.5522
11.1487	3.5554
11.1248	3.5727
11.1010	3.5810
11.0773	3.6028
11.0536	3.5972
11.0301	3.6086
11.0067	3.5901
10.9834	3.5954
10.9602	3.6030
10.9370	3.6150
10.9140	3.6272
10.8911	3.6601
10.8682	3.6765
10.8455	3.7070
10.8229	3.7783
10.8003	3.7961
10.7779	3.7817
10.7555	3.8452
10.7332	3.8994
10.7111	3.9121
10.6890	3.9060
10.6670	3.9131
10.6451	3.9443
10.6233	3.9902
10.6015	4.0251
10.5799	4.0593
10.5584	4.0791
10.5369	4.1196
10.5155	4.1658
10.4942	4.2139
10.4730	4.2451
10.4519	4.2742
10.4309	4.2947
10.4099	4.3188
10.3891	4.3254
10.3683	4.3999
10.3476	4.4292
10.3270	4.4609
10.3065	4.4641
10.2860	4.4861
10.2656	4.5256
10.2454	4.5652
10.2251	4.5906
10.2050	4.6496
10.1850	4.7334
10.1650	4.7986
10.1451	4.7939
10.1253	4.8188
10.1056	4.8196
10.0859	4.8970
10.0663	4.9988
10.0468	5.0796
10.0274	5.0964
10.0080	5.1628
9.9887	5.2276
9.9695	5.3418
9.9504	5.4067
9.9313	5.4553
9.9123	5.5473
9.8934	5.6621
9.8746	5.7344
9.8558	5.7995
9.8371	5.8362
9.8185	5.8918
9.7999	5.9599
9.7814	6.0879
9.7630	6.1721
9.7447	6.2431
9.7264	6.3760
9.7082	6.5420
9.6900	6.7077
9.6719	6.8498
9.6539	7.0115
9.6360	7.1543
9.6181	7.2571
9.6003	7.3523
9.5825	7.5085
9.5649	7.7453
9.5472	7.9787
9.5297	8.2102
9.5122	8.4192
9.4948	8.6667
9.4774	9.0005
9.4601	9.4233
9.4429	9.8984
9.4257	10.4885
9.4086	11.2644
9.3916	12.1516
9.3746	13.0000
9.3577	13.8327
9.3408	14.5520
9.3240	15.1250
9.3073	15.6198
9.2906	15.8925
9.2740	15.9919
9.2574	16.0537
9.2409	16.1335
9.2245	16.1765
9.2081	16.1925
9.1918	16.2092
9.1755	16.1872
9.1593	16.2016
9.1431	16.1840
9.1270	16.1584
9.1110	16.1374
9.0950	16.1352
9.0791	16.1096
9.0632	16.0197
9.0474	15.9760
9.0316	15.9631
9.0159	15.8816
9.0003	15.8144
8.9847	15.7898
8.9691	15.8220
8.9536	15.8724
8.9382	15.9177
8.9228	15.9597
8.9075	16.0434
8.8922	16.0949
8.8770	16.1193
8.8618	16.0847
8.8467	16.0554
8.8316	16.0368
8.8166	15.9311
8.8016	15.7736
8.7867	15.6665
8.7718	15.5168
8.7570	15.3806
8.7422	15.2360
8.7275	15.0900
8.7129	14.9123
8.6982	14.5986
8.6837	14.1364
8.6692	13.4777
8.6547	12.4536
8.6403	11.3642
8.6259	10.9477
8.6116	11.5559
8.5973	12.7207
8.5830	13.8220
8.5688	14.5949
8.5547	15.1372
8.5406	15.4880
8.5266	15.7619
8.5126	15.9821
8.4986	16.0666
8.4847	16.1482
8.4708	16.2546
8.4570	16.3508
8.4432	16.4604
8.4295	16.5515
8.4158	16.6545
8.4022	16.7656
8.3886	16.8869
8.3750	16.9843
8.3615	17.1408
8.3481	17.3575
8.3347	17.5534
8.3213	17.7607
8.3079	18.0356
8.2946	18.2902
8.2814	18.5222
8.2682	18.7534
8.2550	18.9907
8.2419	19.2170
8.2288	19.3811
8.2158	19.4404
8.2028	19.4042
8.1898	19.2448
8.1769	18.9980
8.1640	18.5261
8.1512	17.8369
8.1384	17.0222
8.1256	16.1424
8.1129	15.2295
8.1002	14.3354
8.0876	13.4802
8.0750	12.6596
8.0624	11.8803
8.0499	11.1247
8.0374	10.4316
8.0250	9.8481
8.0126	9.3003
8.0002	8.7192
7.9879	8.1614
7.9756	7.6625
7.9634	7.1477
7.9512	6.5945
7.9390	6.0713
7.9268	5.5701
7.9147	5.1208
7.9027	4.7268
7.8906	4.3542
7.8786	4.0530
7.8667	3.7910
7.8548	3.5356
7.8429	3.3196
7.8310	3.1340
7.8192	2.9397
7.8075	2.8093
7.7957	2.7253
7.7840	2.6287
7.7723	2.5183
7.7607	2.4050
7.7491	2.2651
7.7375	2.1665
7.7260	2.0510
7.7145	1.9797
7.7031	1.9211
7.6916	1.8152
7.6802	1.7417
7.6689	1.6882
7.6575	1.5947
7.6462	1.5212
7.6350	1.4722
7.6238	1.4036
7.6126	1.3342
7.6014	1.2881
7.5903	1.2500
7.5792	1.2253
7.5681	1.2031
7.5571	1.1472
7.5461	1.1001
7.5351	1.0781
7.5242	1.0395
7.5133	1.0207
7.5024	1.0071
7.4916	1.0039
7.4807	0.9612
7.4700	0.9263
7.4592	0.9299
7.4485	0.9446
7.4378	0.9243
7.4272	0.9023
7.4165	0.9087
7.4059	0.9041
7.3954	0.8713
7.3848	0.8469
7.3743	0.8520
7.3639	0.8677
7.3534	0.8562
7.3430	0.8267
7.3326	0.8064
7.3223	0.8474
7.3119	0.8437
7.3016	0.8220
7.2914	0.8115
7.2811	0.8149
7.2709	0.7874
7.2607	0.7944
7.2506	0.8126
7.2404	0.8191
7.2303	0.8430
7.2203	0.8577
7.2102	0.8357
7.2002	0.8188
7.1902	0.8389
7.1803	0.8628
7.1703	0.8567
7.1604	0.8643
7.1506	0.8752
7.1407	0.8589
7.1309	0.8396
7.1211	0.8516
7.1113	0.8638
7.1016	0.8706
7.0919	0.8821
7.0822	0.8774
7.0725	0.9055
7.0629	0.9302
7.0533	0.8870
7.0437	0.8772
7.0341	0.9041
7.0246	0.9126
7.0151	0.9143
7.0056	0.9531
6.9962	0.9687
6.9867	0.9573
6.9773	0.9587
6.9679	0.9448
6.9586	0.9631
6.9493	1.0039
6.9400	1.0156
6.9307	1.0151
6.9214	1.0171
6.9122	1.0356
6.9030	1.0264
6.8938	1.0281
6.8847	1.0471
6.8755	1.0486
6.8664	1.0142
6.8573	1.0049
6.8483	1.0154
6.8393	1.0442
6.8302	1.0610
6.8213	1.0696
6.8123	1.0735
6.8034	1.1157
6.7944	1.1111
6.7855	1.0994
6.7767	1.1174
6.7678	1.1345
6.7590	1.1511
6.7502	1.1858
6.7414	1.1667
6.7327	1.1357
6.7239	1.1294
6.7152	1.1460
6.7065	1.1474
6.6979	1.1741
6.6892	1.1489
6.6806	1.1577
6.6720	1.2217
6.6634	1.2283
6.6549	1.2141
6.6464	1.2141
6.6378	1.1741
6.6294	1.2119
6.6209	1.2627
6.6124	1.2673
6.6040	1.2607
6.5956	1.2307
6.5872	1.2229
6.5789	1.2187
6.5705	1.1897
6.5622	1.2122
6.5539	1.2266
6.5456	1.2361
6.5374	1.2559
6.5292	1.2593
6.5209	1.2327
6.5128	1.2700
6.5046	1.2978
6.4964	1.2493
6.4883	1.2412
6.4802	1.3252
6.4721	1.3853
6.4640	1.4089
6.4560	1.4214
6.4480	1.4451
6.4399	1.4153
6.4320	1.4089
6.4240	1.3892
6.4160	1.3320
6.4081	1.3508
6.4002	1.4116
6.3923	1.4094
6.3844	1.3796
6.3766	1.3757
6.3687	1.3660
6.3609	1.3870
6.3531	1.3601
6.3454	1.2681
6.3376	1.3198
6.3299	1.3733
6.3221	1.3442
6.3144	1.3208
6.3068	1.3142
6.2991	1.3079
6.2914	1.2924
6.2838	1.2913
6.2762	1.3137
6.2686	1.3303
6.2611	1.3054
6.2535	1.2910
6.2460	1.2751
6.2385	1.2498
6.2310	1.2319
6.2235	1.2322
6.2160	1.2219
6.2086	1.2329
6.2011	1.2732
6.1937	1.2656
6.1863	1.2297
6.1790	1.2561
6.1716	1.2715
6.1643	1.2368
6.1570	1.2270
6.1496	1.2795
6.1424	1.2949
6.1351	1.2869
6.1278	1.3027
6.1206	1.3079
6.1134	1.2937
6.1062	1.3267
6.0990	1.3777
6.0918	1.3921
6.0847	1.3967
6.0776	1.3694
6.0704	1.3872
6.0633	1.3965
6.0563	1.3569
6.0492	1.3166
6.0421	1.3765
6.0351	1.4368
6.0281	1.4646
6.0211	1.4712
6.0141	1.4470
6.0071	1.4595
6.0002	1.4883
5.9932	1.4707
5.9863	1.4341
5.9794	1.4133
5.9725	1.4170
5.9657	1.4397
5.9588	1.4746
5.9520	1.4658
5.9451	1.4587
5.9383	1.4370
5.9315	1.4817
5.9247	1.5466
5.9180	1.5664
5.9112	1.5935
5.9045	1.5981
5.8978	1.5659
5.8911	1.6099
5.8844	1.6238
5.8777	1.6533
5.8711	1.7468
5.8644	1.7800
5.8578	1.8157
5.8512	1.8689
5.8446	1.8865
5.8380	1.9172
5.8314	1.9631
5.8249	1.9497
5.8184	1.9785
5.8118	2.0803
5.8053	2.1396
5.7988	2.1709
5.7923	2.2148
5.7859	2.2583
5.7794	2.2854
5.7730	2.2768
5.7666	2.2539
5.7602	2.3647
5.7538	2.4641
5.7474	2.4902
5.7410	2.5527
5.7347	2.5937
5.7283	2.6096
5.7220	2.6492
5.7157	2.6877
5.7094	2.7085
5.7031	2.7642
5.6969	2.7871
5.6906	2.7544
5.6844	2.7371
5.6782	2.6792
5.6719	2.6279
5.6657	2.5945
5.6596	2.5210
5.6534	2.4690
5.6472	2.4187
5.6411	2.3586
5.6349	2.3818
5.6288	2.3840
5.6227	2.3647
5.6166	2.3516
5.6106	2.3367
5.6045	2.3433
5.5984	2.3569
5.5924	2.3406
5.5864	2.3418
5.5804	2.3293
5.5744	2.3589
5.5684	2.4209
5.5624	2.4265
5.5564	2.4248
5.5505	2.4534
5.5445	2.4846
5.5386	2.5154
5.5327	2.5420
5.5268	2.5706
5.5209	2.5950
5.5151	2.6304
5.5092	2.6876
5.5033	2.7324
5.4975	2.7737
5.4917	2.7974
5.4859	2.8345
5.4801	2.8660
5.4743	2.8821
5.4685	2.9060
5.4628	2.9343
5.4570	2.9905
5.4513	3.0139
5.4455	3.0142
5.4398	2.9993
5.4341	2.9597
5.4284	2.9165
5.4228	2.8418
5.4171	2.8186
5.4114	2.8196
5.4058	2.7632
5.4002	2.6995
5.3945	2.6658
5.3889	2.6284
5.3833	2.5720
5.3778	2.5288
5.3722	2.4978
5.3666	2.4573
5.3611	2.4333
5.3555	2.4082
5.3500	2.3892
5.3445	2.4121
5.3390	2.4324
5.3335	2.4585
5.3280	2.4780
5.3225	2.4929
5.3171	2.5093
5.3116	2.5010
5.3062	2.5122
5.3008	2.5322
5.2954	2.5422
5.2900	2.5432
5.2846	2.5876
5.2792	2.6260
5.2738	2.6428
5.2684	2.6694
5.2631	2.7165
5.2578	2.7502
5.2524	2.7888
5.2471	2.8559
5.2418	2.9177
5.2365	2.9624
5.2312	3.0117
5.2260	3.0684
5.2207	3.1453
5.2154	3.2217
5.2102	3.2729
5.2050	3.3017
5.1998	3.3174
5.1945	3.3462
5.1893	3.3767
5.1842	3.3992
5.1790	3.4133
5.1738	3.4036
5.1686	3.3896
5.1635	3.3977
5.1584	3.4224
5.1532	3.4104
5.1481	3.3933
5.1430	3.3945
5.1379	3.4194
5.1328	3.4319
5.1277	3.4174
5.1227	3.4343
5.1176	3.4448
5.1126	3.4717
5.1075	3.4853
5.1025	3.4690
5.0975	3.4509
5.0925	3.4480
5.0875	3.4280
5.0825	3.3921
5.0775	3.3938
5.0726	3.4111
5.0676	3.4119
5.0627	3.3784
5.0577	3.3728
5.0528	3.3848
5.0479	3.4001
5.0430	3.4231
5.0380	3.4182
5.0332	3.4172
5.0283	3.4104
5.0234	3.3960
5.0185	3.4074
5.0137	3.4228
5.0088	3.4216
5.0040	3.4385
4.9992	3.4597
4.9944	3.4766
4.9896	3.5073
4.9848	3.5559
4.9800	3.5891
4.9752	3.6194
4.9704	3.6621
4.9657	3.7212
4.9609	3.7795
4.9562	3.8642
4.9514	3.9731
4.9467	4.0259
4.9420	4.0395
4.9373	4.0830
4.9326	4.1509
4.9279	4.2402
4.9232	4.3420
4.9186	4.4514
4.9139	4.6033
4.9092	4.8176
4.9046	5.1001
4.9000	5.4216
4.8953	5.8276
4.8907	6.2651
4.8861	6.7202
4.8815	7.1858
4.8769	7.6162
4.8723	8.0466
4.8678	8.4853
4.8632	8.8845
4.8586	9.2754
4.8541	9.6528
4.8495	9.9995
4.8450	10.3330
4.8405	10.6377
4.8360	10.9441
4.8315	11.2365
4.8270	11.4973
4.8225	11.7573
4.8180	12.0222
4.8135	12.2695
4.8090	12.5366
4.8046	12.7812
4.8001	12.9987
4.7957	13.2041
4.7913	13.3903
4.7868	13.5893
4.7824	13.8093
4.7780	14.0398
4.7736	14.2299
4.7692	14.3923
4.7648	14.5766
4.7605	14.7492
4.7561	14.8986
4.7517	15.0207
4.7474	15.1594
4.7431	15.2912
4.7387	15.3596
4.7344	15.4091
4.7301	15.4738
4.7258	15.5195
4.7215	15.5036
4.7172	15.4419
4.7129	15.3046
4.7086	15.0954
4.7043	14.8086
4.7000	14.4760
4.6958	14.0981
4.6915	13.7031
4.6873	13.3852
4.6831	13.2470
4.6788	13.2863
4.6746	13.4951
4.6704	13.8469
4.6662	14.2922
4.6620	14.6974
4.6578	15.0617
4.6536	15.4318
4.6495	15.8317
4.6453	16.2385
4.6411	16.6435
4.6370	17.0341
4.6328	17.3889
4.6287	17.7009
4.6246	17.9809
4.6205	18.2478
4.6163	18.4677
4.6122	18.6777
4.6081	18.8293
4.6040	18.9533
4.6000	19.0798
4.5959	19.2231
4.5918	19.3166
4.5877	19.3547
4.5837	19.4157
4.5796	19.4631
4.5756	19.4582
4.5716	19.4365
4.5675	19.3803
4.5635	19.3083
4.5595	19.2014
4.5555	19.0502
4.5515	18.8452
4.5475	18.5463
4.5435	18.2111
4.5395	17.8620
4.5356	17.4704
4.5316	17.0461
4.5276	16.6049
4.5237	16.1482
4.5197	15.6301
4.5158	15.0788
4.5119	14.5351
4.5080	13.9956
4.5040	13.5307
4.5001	13.1416
4.4962	12.7878
4.4923	12.5503
4.4884	12.3950
4.4846	12.2656
4.4807	12.1472
4.4768	12.0114
4.4730	11.8899
4.4691	11.8371
4.4652	11.8640
4.4614	11.9568
4.4576	12.1609
4.4537	12.4135
4.4499	12.6455
4.4461	12.8537
4.4423	13.0188
4.4385	13.1479
4.4347	13.2824
4.4309	13.4648
4.4271	13.6545
4.4233	13.8422
4.4196	14.0688
4.4158	14.3012
4.4120	14.5041
4.4083	14.7170
4.4045	14.9831
4.4008	15.2751
4.3971	15.5649
4.3934	15.8774
4.3896	16.2182
4.3859	16.5507
4.3822	16.8642
4.3785	17.1933
4.3748	17.5542
4.3711	17.9116
4.3674	18.2407
4.3638	18.5373
4.3601	18.8242
4.3564	19.1335
4.3528	19.3818
4.3491	19.5942
4.3455	19.7807
4.3418	19.9448
4.3382	20.0678
4.3346	20.1323
4.3310	20.2106
4.3273	20.2674
4.3237	20.2597
4.3201	20.2697
4.3165	20.2106
4.3129	20.0693
4.3094	19.9519
4.3058	19.8469
4.3022	19.7668
4.2986	19.6706
4.2951	19.5588
4.2915	19.5041
4.2880	19.4799
4.2844	19.5019
4.2809	19.5666
4.2774	19.6347
4.2738	19.7128
4.2703	19.8356
4.2668	19.9968
4.2633	20.1694
4.2598	20.3475
4.2563	20.5326
4.2528	20.6088
4.2493	20.5749
4.2458	20.5148
4.2424	20.4340
4.2389	20.3624
4.2354	20.3632
4.2320	20.4062
4.2285	20.4816
4.2251	20.5610
4.2216	20.6538
4.2182	20.7692
4.2148	20.8732
4.2113	20.9628
4.2079	21.0036
4.2045	21.0234
4.2011	21.0322
4.1977	21.0683
4.1943	21.1664
4.1909	21.2490
4.1875	21.3142
4.1841	21.3879
4.1808	21.4956
4.1774	21.6210
4.1740	21.7141
4.1707	21.7880
4.1673	21.8535
4.1640	21.9265
4.1606	22.0175
4.1573	22.1059
4.1540	22.1518
4.1506	22.2125
4.1473	22.2978
4.1440	22.3693
4.1407	22.4211
4.1374	22.4992
4.1341	22.5886
4.1308	22.6762
4.1275	22.7600
4.1242	22.8425
4.1209	22.9164
4.1177	23.0125
4.1144	23.1203
4.1111	23.2402
4.1079	23.3571
4.1046	23.4360
4.1014	23.5012
4.0981	23.6245
4.0949	23.7194
4.0917	23.7929
4.0884	23.8757
4.0852	23.9245
4.0820	23.9892
4.0788	24.0500
4.0756	24.1124
4.0724	24.1769
4.0692	24.2153
4.0660	24.2307
4.0628	24.2372
4.0596	24.2194
4.0565	24.1948
4.0533	24.1794
4.0501	24.1889
4.0470	24.1738
4.0438	24.1175
4.0406	24.0847
4.0375	24.0566
4.0344	24.0019
4.0312	23.9699
4.0281	23.9621
4.0250	23.9128
4.0218	23.8705
4.0187	23.8447
4.0156	23.8588
4.0125	23.8381
4.0094	23.8061
4.0063	23.7978
4.0032	23.7525
4.0001	23.7570
3.9970	23.7851
3.9940	23.8237
3.9909	23.8615
3.9878	23.9033
3.9847	23.9294
3.9817	23.9672
3.9786	24.0143
3.9756	24.0170
3.9725	24.0380
3.9695	24.0600
3.9665	24.1303
3.9634	24.2231
3.9604	24.2817
3.9574	24.2971
3.9544	24.3493
3.9513	24.4374
3.9483	24.5029
3.9453	24.5174
3.9423	24.5090
3.9393	24.5107
3.9363	24.5702
3.9333	24.6226
3.9304	24.6340
3.9274	24.6271
3.9244	24.6218
3.9214	24.6323
3.9185	24.5934
3.9155	24.5666
3.9126	24.5744
3.9096	24.5595
3.9067	24.5090
3.9037	24.4684
3.9008	24.4470
3.8979	24.3818
3.8949	24.2690
3.8920	24.2280
3.8891	24.1889
3.8862	24.1293
3.8833	24.0446
3.8804	23.9665
3.8775	23.8991
3.8746	23.8454
3.8717	23.7961
3.8688	23.7325
3.8659	23.6857
3.8630	23.6618
3.8601	23.6162
3.8573	23.5732
3.8544	23.5143
3.8515	23.4540
3.8487	23.4672
3.8458	23.4648
3.8430	23.4276
3.8401	23.4081
3.8373	23.4089
3.8344	23.4318
3.8316	23.4269
3.8288	23.3669
3.8259	23.3915
3.8231	23.4252
3.8203	23.4089
3.8175	23.3957
3.8147	23.3825
3.8119	23.3801
3.8091	23.3544
3.8063	23.3359
3.8035	23.3422
3.8007	23.3290
3.7979	23.2524
3.7951	23.1957
3.7924	23.1642
3.7896	23.0998
3.7868	23.0204
3.7841	22.9711
3.7813	22.9228
3.7785	22.8691
3.7758	22.7993
3.7730	22.6889
3.7703	22.6022
3.7676	22.5642
3.7648	22.4976
3.7621	22.4030
3.7594	22.3117
3.7566	22.2514
3.7539	22.1789
3.7512	22.1313
3.7485	22.0632
3.7458	21.9958
3.7431	21.9633
3.7404	21.9350
3.7377	21.8896
3.7350	21.8420
3.7323	21.7912
3.7296	21.7758
3.7269	21.7578
3.7242	21.7348
3.7216	21.7453
3.7189	21.7612
3.7162	21.7751
3.7136	21.8120
3.7109	21.8026
3.7083	21.7973
3.7056	21.8364
3.7030	21.8649
3.7003	21.8510
3.6977	21.8426
3.6950	21.8526
3.6924	21.8496
3.6898	21.9003
3.6872	21.9340
3.6845	21.9062
3.6819	21.9072
3.6793	21.9479
3.6767	21.9409
3.6741	21.8896
3.6715	21.8710
3.6689	21.8679
3.6663	21.8456
3.6637	21.8126
3.6611	21.7980
3.6585	21.8059
3.6560	21.7629
3.6534	21.7001
3.6508	21.6760
3.6482	21.6249
3.6457	21.5651
3.6431	21.5507
3.6406	21.5068
3.6380	21.4750
3.6355	21.4252
3.6329	21.3373
3.6304	21.3149
3.6278	21.2729
3.6253	21.1606
3.6227	21.1101
3.6202	21.0690
3.6177	21.0092
3.6152	20.9299
3.6127	20.8740
3.6101	20.8373
3.6076	20.7729
3.6051	20.7023
3.6026	20.6528
3.6001	20.6013
3.5976	20.5502
3.5951	20.4960
3.5926	20.4348
3.5901	20.3835
3.5876	20.3488
3.5852	20.2719
3.5827	20.1850
3.5802	20.1208
3.5777	20.0480
3.5753	19.9876
3.5728	19.9707
3.5704	19.9124
3.5679	19.8303
3.5654	19.7919
3.5630	19.7441
3.5605	19.6416
3.5581	19.5617
3.5557	19.5246
3.5532	19.4631
3.5508	19.3981
3.5484	19.3674
3.5459	19.3015
3.5435	19.2089
3.5411	19.0979
3.5387	18.9995
3.5363	18.8991
3.5338	18.8181
3.5314	18.7697
3.5290	18.6950
3.5266	18.5475
3.5242	18.4340
3.5218	18.3073
3.5195	18.0952
3.5171	17.8791
3.5147	17.6586
3.5123	17.3767
3.5099	17.0700
3.5075	16.8671
3.5052	16.8175
3.5028	16.8002
3.5004	16.7910
3.4981	16.8164
3.4957	16.8708
3.4934	16.8757
3.4910	16.8620
3.4887	16.8513
3.4863	16.8046
3.4840	16.7463
3.4816	16.6933
3.4793	16.6208
3.4770	16.5810
3.4746	16.5666
3.4723	16.5300
3.4700	16.4599
3.4677	16.3732
3.4653	16.2890
3.4630	16.1975
3.4607	16.1369
3.4584	16.0705
3.4561	15.9636
3.4538	15.8960
3.4515	15.8469
3.4492	15.7375
3.4469	15.5979
3.4446	15.5092
3.4423	15.4170
3.4400	15.2680
3.4378	15.1275
3.4355	14.9895
3.4332	14.7978
3.4309	14.5822
3.4287	14.3469
3.4264	14.1587
3.4241	14.0571
3.4219	13.9992
3.4196	13.9375
3.4174	13.8813
3.4151	13.8803
3.4129	13.8794
3.4106	13.8896
3.4084	13.9150
3.4061	13.9209
3.4039	13.9558
3.4017	13.9738
3.3994	13.9978
3.3972	14.0156
3.3950	14.0339
3.3928	14.0354
3.3906	14.0630
3.3883	14.0783
3.3861	14.0605
3.3839	14.0363
3.3817	14.0014
3.3795	13.9670
3.3773	13.9582
3.3751	13.9592
3.3729	13.9587
3.3707	13.9694
3.3685	13.9829
3.3663	13.9563
3.3641	13.9543
3.3620	13.9492
3.3598	13.9521
3.3576	13.9577
3.3554	13.9358
3.3533	13.9528
3.3511	13.9968
3.3489	13.9699
3.3468	13.9052
3.3446	13.8332
3.3425	13.8432
3.3403	13.8598
3.3382	13.8191
3.3360	13.7287
3.3339	13.6709
3.3317	13.6640
3.3296	13.6450
3.3274	13.5752
3.3253	13.5183
3.3232	13.4904
3.3210	13.4692
3.3189	13.3864
3.3168	13.3466
3.3147	13.3222
3.3126	13.2304
3.3104	13.1496
3.3083	13.1003
3.3062	13.0393
3.3041	12.9983
3.3020	12.9338
3.2999	12.8862
3.2978	12.8134
3.2957	12.7370
3.2936	12.6762
3.2915	12.6272
3.2894	12.5593
3.2874	12.5036
3.2853	12.4448
3.2832	12.3720
3.2811	12.3134
3.2790	12.2580
3.2770	12.1999
3.2749	12.1323
3.2728	12.0705
3.2708	12.0078
3.2687	11.9529
3.2666	11.9341
3.2646	11.8554
3.2625	11.7712
3.2605	11.7351
3.2584	11.6911
3.2564	11.6457
3.2543	11.5967
3.2523	11.5266
3.2503	11.4389
3.2482	11.3896
3.2462	11.3659
3.2442	11.3071
3.2421	11.2807
3.2401	11.2177
3.2381	11.1037
3.2361	11.0464
3.2340	11.0146
3.2320	10.9848
3.2300	10.9780
3.2280	10.8945
3.2260	10.8020
3.2240	10.7895
3.2220	10.7915
3.2200	10.7302
3.2180	10.6438
3.2160	10.5991
3.2140	10.5488
3.2120	10.5107
3.2100	10.4822
3.2080	10.4157
3.2060	10.3388
3.2040	10.2749
3.2021	10.2510
3.2001	10.2644
3.1981	10.2273
3.1961	10.1323
3.1942	10.0835
3.1922	10.0444
3.1902	10.0110
3.1883	9.9555
3.1863	9.8869
3.1844	9.8701
3.1824	9.8469
3.1805	9.7854
3.1785	9.7099
3.1766	9.6784
3.1746	9.6548
3.1727	9.5754
3.1707	9.5371
3.1688	9.5307
3.1669	9.4914
3.1649	9.4419
3.1630	9.3562
3.1611	9.3093
3.1591	9.3095
3.1572	9.2544
3.1553	9.1931
3.1534	9.1525
3.1515	9.1098
3.1495	9.0486
3.1476	8.9963
3.1457	8.9328
3.1438	8.8952
3.1419	8.8598
3.1400	8.8415
3.1381	8.8020
3.1362	8.7358
3.1343	8.7009
3.1324	8.6638
3.1305	8.6367
3.1286	8.6501
3.1268	8.6006
3.1249	8.5488
3.1230	8.5005
3.1211	8.4414
3.1192	8.3994
3.1174	8.4392
3.1155	8.4377
3.1136	8.3818
3.1117	8.3208
3.1099	8.2998
3.1080	8.2529
3.1061	8.2549
3.1043	8.2768
3.1024	8.2629
3.1006	8.2248
3.0987	8.1743
3.0969	8.1264
3.0950	8.0981
3.0932	8.0661
3.0913	8.0642
3.0895	8.0149
3.0876	7.9587
3.0858	7.9641
3.0840	7.9604
3.0821	7.9419
3.0803	7.9402
3.0785	7.9397
3.0766	7.8955
3.0748	7.8603
3.0730	7.8369
3.0712	7.8069
3.0694	7.7822
3.0675	7.7383
3.0657	7.6955
3.0639	7.7068
3.0621	7.6936
3.0603	7.6421
3.0585	7.6848
3.0567	7.6674
3.0549	7.5913
3.0531	7.5679
3.0513	7.5796
3.0495	7.5759
3.0477	7.5471
3.0459	7.5459
3.0441	7.5049
3.0423	7.4592
3.0406	7.4668
3.0388	7.4563
3.0370	7.4704
3.0352	7.4643
3.0334	7.4277
3.0317	7.4006
3.0299	7.4004
3.0281	7.3662
3.0264	7.3452
3.0246	7.3681
3.0228	7.3308
3.0211	7.2785
3.0193	7.3330
3.0176	7.3454
3.0158	7.2673
3.0140	7.2055
3.0123	7.2207
3.0105	7.2358
3.0088	7.2125
3.0070	7.2082
3.0053	7.1838
3.0036	7.1902
3.0018	7.2077
3.0001	7.1565
2.9984	7.1413
2.9966	7.1372
2.9949	7.1472
2.9932	7.1352
2.9914	7.1135
2.9897	7.0320
2.9880	7.0210
2.9863	7.0549
2.9845	7.0705
2.9828	7.0017
2.9811	6.9585
2.9794	6.9673
2.9777	6.9372
2.9760	6.9057
2.9743	6.9148
2.9726	6.8994
2.9709	6.8367
2.9692	6.8052
2.9675	6.8479
2.9658	6.8139
2.9641	6.8010
2.9624	6.7746
2.9607	6.6990
2.9590	6.6697
2.9573	6.6777
2.9556	6.7366
2.9539	6.7480
2.9523	6.6877
2.9506	6.6809
2.9489	6.6782
2.9472	6.6887
2.9455	6.6946
2.9439	6.7121
2.9422	6.7412
2.9405	6.7143
2.9389	6.7441
2.9372	6.7827
2.9355	6.7541
2.9339	6.7444
2.9322	6.7866
2.9306	6.7793
2.9289	6.7239
2.9272	6.7295
2.9256	6.7746
2.9239	6.7287
2.9223	6.7278
2.9207	6.7187
2.9190	6.6909
2.9174	6.6977
2.9157	6.6465
2.9141	6.5974
2.9124	6.6006
2.9108	6.6224
2.9092	6.6120
2.9075	6.5835
2.9059	6.5762
2.9043	6.5486
2.9027	6.4825
2.9010	6.5451
2.8994	6.6211
2.8978	6.6118
2.8962	6.5359
2.8946	6.5159
2.8929	6.5498
2.8913	6.5849
2.8897	6.6252
2.8881	6.6958
2.8865	6.7073
2.8849	6.7534
2.8833	6.7829
2.8817	6.7854
2.8801	6.8613
2.8785	6.9297
2.8769	6.9502
2.8753	6.9878
2.8737	7.0483
2.8721	7.0781
2.8705	7.0571
2.8689	7.1343
2.8673	7.1745
2.8658	7.1977
2.8642	7.3218
2.8626	7.3696
2.8610	7.3672
2.8594	7.3520
2.8579	7.3266
2.8563	7.3591
2.8547	7.3965
2.8531	7.4682
2.8516	7.4807
2.8500	7.4353
2.8484	7.4221
2.8469	7.4712
2.8453	7.4768
2.8437	7.4438
2.8422	7.4773
2.8406	7.5427
2.8391	7.4861
2.8375	7.3933
2.8360	7.3606
2.8344	7.3818
2.8329	7.4382
2.8313	7.5627
2.8298	7.6555
2.8282	7.6679
2.8267	7.7175
2.8252	7.7883
2.8236	7.9385
2.8221	8.0110
2.8205	7.9460
2.8190	7.9284
2.8175	8.0212
2.8159	8.1301
2.8144	8.1701
2.8129	8.2046
2.8114	8.2461
2.8098	8.2685
2.8083	8.2969
2.8068	8.3003
2.8053	8.2817
2.8038	8.2409
2.8022	8.2378
2.8007	8.2975
2.7992	8.3493
2.7977	8.3327
2.7962	8.3713
2.7947	8.4233
2.7932	8.3723
2.7917	8.3428
2.7902	8.3291
2.7887	8.2395
2.7872	8.1704
2.7857	8.1762
2.7842	8.2356
2.7827	8.1794
2.7812	8.0908
2.7797	8.0991
2.7782	8.0456
2.7767	8.0088
2.7752	7.9983
2.7738	7.9424
2.7723	7.7966
2.7708	7.5971
2.7693	7.4770
2.7678	7.2956
2.7664	7.0293
2.7649	6.7385
2.7634	6.3489
2.7619	6.1155
2.7605	6.2219
2.7590	6.3572
2.7575	6.4225
2.7561	6.4216
2.7546	6.5732
2.7531	6.9001
2.7517	7.1548
2.7502	7.3315
2.7488	7.4270
2.7473	7.5596
2.7458	7.6416
2.7444	7.7029
2.7429	7.7074
2.7415	7.5786
2.7400	7.5217
2.7386	7.7102
2.7371	8.0168
2.7357	8.0996
2.7343	8.2248
2.7328	8.5381
2.7314	8.8327
2.7299	9.0449
2.7285	9.2239
2.7271	9.3330
2.7256	9.2849
2.7242	9.3984
2.7228	9.8574
2.7213	10.1084
2.7199	10.2837
2.7185	10.7895
2.7171	11.1787
2.7156	11.4301
2.7142	11.5508
2.7128	11.4516
2.7114	11.0547
2.7100	10.7900
2.7085	10.6792
2.7071	10.5122
2.7057	10.2956
2.7043	10.2407
2.7029	10.5520
2.7015	11.1701
2.7001	12.1897
2.6987	13.4069
2.6973	14.6245
2.6959	15.8283
2.6945	17.1438
2.6931	18.7661
2.6917	20.7651
2.6903	22.4675
2.6889	23.9133
2.6875	25.2980
2.6861	26.5380
2.6847	27.6467
2.6833	28.6115
2.6819	29.5951
2.6805	30.2424
2.6791	30.3744
2.6778	30.7525
2.6764	31.1044
2.6750	32.0419
2.6736	32.9818
2.6722	33.0898
2.6709	32.1727
2.6695	32.4897
2.6681	33.5429
2.6667	33.1808
2.6654	33.2904
2.6640	34.2094
2.6626	35.3170
2.6613	35.5736
2.6599	35.7353
2.6585	36.0111
2.6572	36.3954
2.6558	36.3583
2.6545	36.5070
2.6531	36.5504
2.6517	36.6701
2.6504	37.0912
2.6490	37.3700
2.6477	37.4552
2.6463	37.3226
2.6450	37.3554
2.6436	37.6637
2.6423	37.7274
2.6409	37.8986
2.6396	38.1205
2.6382	38.1793
2.6369	38.2292
2.6356	38.3246
2.6342	38.0829
2.6329	38.0668
2.6315	37.6955
2.6302	37.0705
2.6289	37.7843
2.6275	38.0922
2.6262	37.8043
2.6249	38.5216
2.6236	38.9503
2.6222	38.8520
2.6209	37.9427
2.6196	37.7550
2.6183	38.2331
2.6169	37.8256
2.6156	38.2250
2.6143	38.9162
2.6130	38.9711
2.6117	39.0971
2.6103	38.9340
2.6090	38.7865
2.6077	38.7279
2.6064	38.2008
2.6051	37.7843
2.6038	38.3783
2.6025	38.8644
2.6012	39.1137
2.5999	39.4364
2.5986	39.5474
2.5973	39.1107
2.5960	37.7963
2.5947	36.5299
2.5934	37.6784
2.5921	39.2306
2.5908	39.5543
2.5895	39.3285
2.5882	39.0985
2.5869	38.9750
2.5856	39.2003
2.5843	38.7633
2.5830	38.7089
2.5817	39.2182
2.5805	39.3588
2.5792	39.7482
2.5779	39.5988
2.5766	39.2995
2.5753	39.5114
2.5741	39.2487
2.5728	39.1175
2.5715	39.7733
2.5702	39.5905
2.5690	39.4364
2.5677	39.8500
2.5664	40.0072
2.5651	39.6322
2.5639	39.2636
2.5626	39.1852
2.5613	39.1588
2.5601	39.5197
2.5588	40.0438
2.5575	40.2062
2.5563	40.1706
2.5550	40.1466
2.5538	40.0495
2.5525	39.8361
2.5513	39.8754
2.5500	40.0019
2.5487	40.0917
2.5475	40.0495
2.5462	40.1171
2.5450	40.1312
2.5437	40.0143
2.5425	40.0143
2.5413	40.2440
2.5400	40.3107
2.5388	40.2694
2.5375	40.2951
2.5363	40.2160
2.5350	40.2213
2.5338	40.2907
2.5326	40.2287
2.5313	40.2780
2.5301	40.3732
2.5289	40.4440
2.5276	40.4298
2.5264	40.4425
2.5252	40.4611
2.5239	40.3959
2.5227	40.3446
2.5215	40.4098
2.5202	40.4723
2.5190	40.4694
2.5178	40.4723
2.5166	40.4738
2.5154	40.4694
2.5141	40.4811
2.5129	40.4455
2.5117	40.4979
2.5105	40.5421
2.5093	40.4823
2.5081	40.5153
2.5068	40.5722
2.5056	40.5993
2.5044	40.6207
2.5032	40.6063
2.5020	40.5777
2.5008	40.6122
2.4996	40.6364
2.4984	40.6134
2.4972	40.6290
2.4960	40.6261
2.4948	40.5963
2.4936	40.6405
2.4924	40.7435
2.4912	40.6964
2.4900	40.6618
2.4888	40.7333
2.4876	40.7462
2.4864	40.7492
2.4852	40.8153
2.4840	40.8466
2.4828	40.7621
2.4816	40.8109
2.4805	40.9115
2.4793	40.9345
2.4781	40.9845
2.4769	41.0092
2.4757	41.0351
2.4745	41.0656
2.4734	41.0351
2.4722	41.0612
2.4710	41.1405
2.4698	41.1261
2.4686	41.0712
2.4675	41.1508
2.4663	41.2448
2.4651	41.2257
2.4640	41.2304
2.4628	41.2621
2.4616	41.2621
2.4604	41.3187
2.4593	41.3537
2.4581	41.3493
2.4569	41.3810
2.4558	41.4118
2.4546	41.4044
2.4535	41.4059
2.4523	41.4335
2.4511	41.4074
2.4500	41.4044
2.4488	41.5036
2.4477	41.5926
2.4465	41.5458
2.4454	41.5036
2.4442	41.5370
2.4431	41.6012
2.4419	41.6786
2.4408	41.6613
2.4396	41.6583
2.4385	41.7255
2.4373	41.7816
2.4362	41.7714
2.4350	41.7934
2.4339	41.8209
2.4327	41.8607
2.4316	41.9418
2.4305	41.9948
2.4293	42.0673
2.4282	42.0451
2.4270	42.0731
2.4259	42.1412
2.4248	42.1500
2.4236	42.1752
2.4225	42.2035
2.4214	42.2064
2.4202	42.2567
2.4191	42.2970
2.4180	42.2479
2.4169	42.2909
2.4157	42.3966
2.4146	42.4220
2.4135	42.3712
2.4124	42.4175
2.4112	42.4562
2.4101	42.5099
2.4090	42.5609
2.4079	42.5294
2.4068	42.5025
2.4056	42.5385
2.4045	42.5636
2.4034	42.5968
2.4023	42.5995
2.4012	42.5563
2.4001	42.5936
2.3990	42.6867
2.3979	42.6972
2.3967	42.6234
2.3956	42.6073
2.3945	42.6102
2.3934	42.6073
2.3923	42.6312
2.3912	42.6354
2.3901	42.6624
2.3890	42.6461
2.3879	42.6102
2.3868	42.6222
2.3857	42.6491
2.3846	42.6703
2.3835	42.6808
2.3824	42.7135
2.3813	42.7467
2.3802	42.7287
2.3791	42.7135
2.3781	42.7257
2.3770	42.7240
2.3759	42.7753
2.3748	42.8082
2.3737	42.7872
2.3726	42.7931
2.3715	42.7887
2.3704	42.8895
2.3694	42.9574
2.3683	42.9454
2.3672	42.9166
2.3661	42.9213
2.3650	42.9513
2.3640	42.9635
2.3629	42.9288
2.3618	42.8986
2.3607	42.9032
2.3597	42.9408
2.3586	42.9635
2.3575	42.9635
2.3564	42.9288
2.3554	42.9166
2.3543	42.9694
2.3532	42.9682
2.3522	42.8685
2.3511	42.8624
2.3500	42.9589
2.3490	42.9682
2.3479	42.9755
2.3468	42.9996
2.3458	42.9967
2.3447	43.0407
2.3436	43.1010
2.3426	42.9982
2.3415	42.9876
2.3405	43.1420
2.3394	43.1603
2.3384	43.1752
2.3373	43.1889
2.3363	43.1967
2.3352	43.2072
2.3342	43.2179
2.3331	43.2650
2.3321	43.3380
2.3310	43.2985
2.3300	43.2846
2.3289	43.3151
2.3279	43.2724
2.3268	43.3058
2.3258	43.3439
2.3247	43.3287
2.3237	43.3031
2.3226	43.3031
2.3216	43.3561
2.3206	43.4017
2.3195	43.4188
2.3185	43.4401
2.3175	43.4523
2.3164	43.4384
2.3154	43.4479
2.3144	43.4357
2.3133	43.4447
2.3123	43.4401
2.3113	43.4462
2.3102	43.5011
2.3092	43.5455
2.3082	43.5609
2.3071	43.5180
2.3061	43.5380
2.3051	43.5885
2.3041	43.6268
2.3030	43.6605
2.3020	43.6574
2.3010	43.6588
2.3000	43.6281
2.2990	43.6742
2.2979	43.7525
2.2969	43.7157
2.2959	43.7819
2.2949	43.7572
2.2939	43.7401
2.2929	43.7418
2.2918	43.7970
2.2908	43.8726
2.2898	43.9049
2.2888	43.8480
2.2878	43.7987
2.2868	43.8234
2.2858	43.8356
2.2848	43.8742
2.2838	43.8480
2.2828	43.8619
2.2818	43.9081
2.2808	43.9467
2.2798	43.9096
2.2787	43.9157
2.2777	43.9606
2.2767	43.8634
2.2757	43.8773
2.2747	44.0131
2.2738	44.0333
2.2728	44.0319
2.2718	43.9962
2.2708	43.8973
2.2698	43.9313
2.2688	43.9867
2.2678	44.0287
2.2668	44.0238
2.2658	43.9806
2.2648	44.0038
2.2638	44.0519
2.2628	44.0922
2.2618	44.0783
2.2609	43.9774
2.2599	43.9667
2.2589	44.1122
2.2579	44.0690
2.2569	44.0319
2.2559	44.1046
2.2550	44.1742
2.2540	44.1696
2.2530	44.1014
2.2520	43.9760
2.2510	44.0333
2.2501	44.1403
2.2491	44.1277
2.2481	44.1215
2.2471	44.1696
2.2462	44.1945
2.2452	44.1618
2.2442	44.1586
2.2433	44.2255
2.2423	44.1852
2.2413	44.2020
2.2403	44.2350
2.2394	44.2269
2.2384	44.2472
2.2374	44.2316
2.2365	44.2052
2.2355	44.1759
2.2345	44.2130
2.2336	44.2689
2.2326	44.2785
2.2317	44.2037
2.2307	44.1603
2.2297	44.1896
2.2288	44.1664
2.2278	44.1403
2.2269	44.1927
2.2259	44.1526
2.2250	44.0702
2.2240	44.0487
2.2231	44.0006
2.2221	44.0409
2.2211	44.0319
2.2202	44.0209
2.2192	43.8849
2.2183	43.8588
2.2173	43.9005
2.2164	43.7540
2.2155	43.7186
2.2145	43.7601
2.2136	43.6481
2.2126	43.4979
2.2117	43.3761
2.2107	43.1979
2.2098	43.1403
2.2088	43.1493
2.2079	43.0949
2.2070	43.0165
2.2060	43.0541
2.2051	43.1449
2.2041	43.2301
2.2032	43.2665
2.2023	43.2465
2.2013	43.2572
2.2004	43.2604
2.1995	43.2846
2.1985	43.3273
2.1976	43.4003
2.1967	43.4357
2.1957	43.4324
2.1948	43.4569
2.1939	43.4830
2.1930	43.5180
2.1920	43.5394
2.1911	43.5836
2.1902	43.5929
2.1893	43.5560
2.1883	43.6022
2.1874	43.6251
2.1865	43.6835
2.1856	43.7880
2.1846	43.8034
2.1837	43.7355
2.1828	43.8419
2.1819	43.8431
2.1810	43.7401
2.1800	43.8602
2.1791	43.9713
2.1782	43.9498
2.1773	43.9203
2.1764	43.8803
2.1755	43.8710
2.1746	43.9513
2.1736	44.0376
2.1727	44.0797
2.1718	44.0580
2.1709	44.0425
2.1700	43.9913
2.1691	43.9838
2.1682	44.0176
2.1673	44.1107
2.1664	44.1820
2.1655	44.1571
2.1646	44.1137
2.1637	44.1664
2.1628	44.2301
2.1619	44.2394
2.1610	44.1526
2.1601	44.1820
2.1592	44.2069
2.1583	44.2037
2.1574	44.2472
2.1565	44.2876
2.1556	44.3374
2.1547	44.3810
2.1538	44.3514
2.1529	44.4218
2.1520	44.4169
2.1511	44.3766
2.1502	44.4640
2.1493	44.4935
2.1484	44.4843
2.1475	44.5421
2.1466	44.5529
2.1458	44.6688
2.1449	44.6675
2.1440	44.5389
2.1431	44.4750
2.1422	44.4559
2.1413	44.6080
2.1404	44.6705
2.1396	44.6769
2.1387	44.6298
2.1378	44.7113
2.1369	44.7980
2.1360	44.7758
2.1352	44.7333
2.1343	44.7882
2.1334	44.7916
2.1325	44.6786
2.1316	44.5453
2.1308	44.6878
2.1299	44.7648
2.1290	44.7191
2.1281	44.7662
2.1273	44.8861
2.1264	44.7509
2.1255	44.6454
2.1247	44.6610
2.1238	44.8261
2.1229	44.8451
2.1220	44.8405
2.1212	44.7882
2.1203	44.7176
2.1194	44.7662
2.1186	44.7948
2.1177	44.7870
2.1168	44.7821
2.1160	44.7067
2.1151	44.6375
2.1143	44.6972
2.1134	44.7191
2.1125	44.7223
2.1117	44.7711
2.1108	44.7382
2.1100	44.7113
2.1091	44.7492
2.1082	44.7882
2.1074	44.8231
2.1065	44.8370
2.1057	44.8497
2.1048	44.9696
2.1040	44.9745
2.1031	44.8673
2.1023	44.7098
2.1014	44.6675
2.1005	44.8136
2.0997	44.8546
2.0988	44.7870
2.0980	44.7333
2.0971	44.8231
2.0963	44.7727
2.0955	44.7758
2.0946	44.7853
2.0938	44.8136
2.0929	44.9303
2.0921	44.7948
2.0912	44.6972
2.0904	44.7521
2.0895	44.7521
2.0887	44.7272
2.0879	44.7460
2.0870	44.8009
2.0862	44.8151
2.0853	44.7130
2.0845	44.7159
2.0837	44.7916
2.0828	44.8419
2.0820	44.8058
2.0812	44.7821
2.0803	44.7994
2.0795	44.8483
2.0760	45.2053
2.0720	45.1545
2.0680	45.2645
2.0640	45.1647
2.0600	45.0975
2.0560	45.4917
2.0520	45.7634
2.0480	45.6361
2.0440	45.8332
2.0400	45.2844
2.0360	45.3324
2.0320	44.9605
2.0280	45.3291
2.0240	45.2250
2.0200	45.0722
2.0160	45.4679
2.0120	45.2659
2.0080	45.4366
2.0040	45.7870
2.0000	45.1256
1.9960	45.0799
1.9920	44.5970
1.9880	44.4181
1.9840	44.6110
1.9800	44.3053
1.9760	44.1194
1.9720	43.7633
1.9680	43.8409
1.9640	43.5324
1.9600	43.2001
1.9560	43.0973
1.9520	43.1684
1.9480	43.2397
1.9440	43.1842
1.9400	42.9694
1.9360	42.8724
1.9320	42.7418
1.9280	42.4901
1.9240	42.3180
1.9200	42.0498
1.9160	42.1506
1.9120	42.0156
1.9080	42.1448
1.9040	42.6780
1.9000	43.0541
1.8960	43.6892
1.8920	44.2950
1.8880	44.6737
1.8840	45.1327
1.8800	45.4581
1.8760	45.4899
1.8720	45.6505
1.8680	45.9676
1.8640	45.8961
1.8600	45.8898
1.8560	46.2064
1.8520	46.3834
1.8480	46.6885
1.8440	46.5964
1.8400	46.5517
1.8360	46.6008
1.8320	46.4467
1.8280	46.5317
1.8240	46.5542
1.8200	46.1955
1.8160	45.8639
1.8120	46.0672
1.8080	46.1426
1.8040	46.4780
1.8000	46.8200
1.7960	46.6383
1.7920	46.0644
1.7880	46.0393
1.7840	46.5346
1.7800	46.6114
1.7760	46.4976
1.7720	46.4976
1.7680	46.6616
1.7640	46.6088
1.7600	46.4500
1.7560	46.3711
1.7520	46.5046
1.7480	46.4293
1.7440	46.4466
1.7400	46.4446
1.7360	46.6346
1.7320	46.2568
1.7280	46.6035
1.7240	46.3031
1.7200	46.1239
1.7160	46.3149
1.7120	46.2158
1.7080	46.0896
1.7040	46.2489
1.7000	46.1430
1.6960	45.7474
1.6920	45.7977
1.6880	45.7440
1.6840	45.5898
1.6800	45.8311
1.6760	45.8448
1.6720	45.5572
1.6680	45.5282
1.6640	45.4820
1.6600	45.2737
1.6560	45.3695
1.6520	45.6542
1.6480	45.6000
1.6440	45.5785
1.6400	45.5747
1.6360	45.5495
1.6320	45.5709
1.6280	45.6722
1.6240	45.7484
1.6200	45.6122
1.6160	45.6468
1.6120	45.5670
1.6080	45.7484
1.6040	45.6543
1.6000	45.2975
1.5960	45.5553
1.5920	45.5044
1.5880	45.4536
1.5840	45.3169
1.5800	45.0663
1.5760	44.9962
1.5720	44.9662
1.5680	45.1464
1.5640	45.4030
1.5600	45.4790
1.5560	45.4283
1.5520	45.3467
1.5480	44.9806
1.5440	44.9257
1.5400	44.9457
1.5360	44.8143
1.5320	45.0254
1.5280	44.9611
1.5240	44.9007
1.5200	44.8256
1.5160	44.7644
1.5120	45.3184
1.5080	45.1874
1.5040	45.0213
1.5000	44.6227
1.4960	44.2211
1.4920	44.1387
1.4880	44.1030
1.4840	43.8089
1.4800	43.7350
1.4760	43.7184
1.4720	43.8060
1.4680	43.8166
1.4640	43.8089
1.4600	43.7920
1.4560	43.5553
1.4520	43.5143
1.4480	43.6537
1.4440	43.5800
1.4400	43.7119
1.4360	43.7368
1.4320	43.6294
1.4280	43.5060
1.4240	43.5060
1.4200	43.6703
1.4160	43.1168
1.4120	42.8574
1.4080	42.6694
1.4040	42.8554
1.4000	42.7666
1.3960	42.4481
1.3920	42.2358
1.3880	42.9600
1.3840	43.0501
1.3800	43.3943
1.3760	43.3325
1.3720	43.3967
1.3680	43.4249
1.3640	43.8368
1.3600	43.7197
1.3560	43.6773
1.3520	43.7194
1.3480	43.6709
1.3440	43.7367
1.3400	43.6720
1.3360	43.7042
1.3320	43.6956
1.3280	43.4969
1.3240	43.5051
1.3200	43.4558
1.3160	43.2913
1.3120	43.3157
1.3080	43.2816
1.3040	43.4467
1.3000	43.4961
1.2960	43.8368
1.2920	43.5524
1.2880	43.5434
1.2840	43.6253
1.2800	43.4127
1.2760	43.2931
1.2720	42.8669
1.2680	42.4631
1.2640	42.4512
1.2600	42.2790
1.2560	42.0818
1.2520	42.0201
1.2480	41.8111
1.2440	41.5515
1.2400	41.6244
1.2360	41.6732
1.2320	41.6595
1.2280	41.9203
1.2240	41.9695
1.2200	41.6732
1.2160	42.0573
1.2120	41.7630
1.2080	41.8357
1.2040	41.7733
1.2000	41.7976
1.1960	41.7491
1.1920	41.5296
1.1880	41.6039
1.1840	41.4336
1.1800	41.5077
1.1760	41.3142
1.1720	41.0746
1.1680	41.0982
1.1640	41.0825
1.1600	40.8694
1.1560	40.9363
1.1520	40.7802
1.1480	40.7840
1.1440	40.6179
1.1400	40.4510
1.1360	40.1141
1.1320	40.3110
1.1280	40.6286
1.1240	40.1805
1.1200	40.1386
1.1160	39.5897
1.1120	40.0340
1.1080	40.0809
1.1040	40.1805
1.1000	39.7721
1.0960	39.5471
1.0920	39.4810
1.0880	39.3051
1.0840	38.8381
1.0800	38.7398
1.0760	39.3982
1.0720	39.2587
1.0680	38.6783
1.0640	38.3179
1.0600	38.2954
1.0560	38.4989
1.0520	38.6725
1.0480	38.3858
1.0440	38.1593
1.0400	38.0453
1.0360	38.0605
1.0320	37.6129
1.0280	38.0679
1.0240	38.1131
1.0200	38.0219
1.0160	37.7730
1.0120	37.5682
1.0080	37.6559
1.0040	37.7475
1.0000	37.6540
0.9960	37.5354
0.9920	37.5804
0.9880	36.7116
0.9840	36.8544
0.9800	37.0283
0.9760	36.8212
0.9720	37.0197
0.9680	36.7730
0.9640	36.9016
0.9600	36.5874
0.9560	36.3794
0.9520	36.3250
0.9480	36.2275
0.9440	36.1875
0.9400	35.9065
0.9360	35.9088
0.9320	35.9306
0.9280	35.6565
0.9240	35.4548
0.9200	35.1741
0.9160	35.5342
0.9120	35.3031
0.9080	35.0934
0.9040	34.6734
0.9000	34.8227
0.8960	34.8656
0.8920	34.7254
0.8880	34.7592
0.8840	34.8632
0.8800	34.6080
0.8760	34.6425
0.8720	34.4637
0.8680	34.2282
0.8640	34.4449
0.8600	34.0466
0.8560	34.1767
0.8520	34.0261
0.8480	33.8100
0.8440	33.6782
0.8400	33.5037
0.8360	33.5604
0.8320	33.5918
0.8280	33.2666
0.8240	32.9621
0.8200	32.8849
0.8160	33.0064
0.8120	32.9870
0.8080	32.5434
0.8040	32.3849
0.8000	32.4391
0.7990	32.3250
0.7980	32.3234
0.7970	32.2964
0.7960	32.4476
0.7950	32.2839
0.7940	31.9554
0.7930	32.2618
0.7920	32.1001
0.7910	31.9363
0.7900	31.8926
0.7890	32.3070
0.7880	32.1963
0.7870	32.1345
0.7860	32.1567
0.7850	31.9583
0.7840	31.8076
0.7830	31.8954
0.7820	31.6985
0.7810	31.6002
0.7800	31.8501
0.7790	31.7202
0.7780	31.8295
0.7770	31.6447
0.7760	31.6012
0.7750	31.6111
0.7740	31.3505
0.7730	31.3289
0.7720	31.3088
0.7710	31.3088
0.7700	31.3088
0.7690	30.9969
0.7680	31.1681
0.7670	31.3191
0.7660	31.1014
0.7650	31.1995
0.7640	30.8192
0.7630	30.9725
0.7620	30.6703
0.7610	30.6146
0.7600	30.7209
0.7590	30.6517
0.7580	30.6864
0.7570	30.7747
0.7560	30.6517
0.7550	30.6517
0.7540	30.1436
0.7530	30.2517
0.7520	30.2488
0.7510	30.3643
0.7500	30.3293
0.7490	30.1920
0.7480	30.2517
0.7470	29.7508
0.7460	29.7717
0.7450	29.7957
0.7440	29.6101
0.7430	29.4696
0.7420	29.8378
0.7410	29.8191
0.7400	29.8401
0.7390	29.7981
0.7380	29.6776
0.7370	29.6776
0.7360	29.2784
0.7350	29.2784
0.7340	29.5240
0.7330	29.5870
0.7320	29.3660
0.7310	29.2202
0.7300	28.7745
0.7290	28.8128
0.7280	29.1133
0.7270	28.9725
0.7260	28.9545
0.7250	28.8954
0.7240	28.8819
0.7230	28.6585
0.7220	28.7404
0.7210	28.5990
0.7200	29.0163
0.7190	28.6007
0.7180	28.2566
0.7170	27.9746
0.7160	28.0753
0.7150	28.1761
0.7140	28.2368
0.7130	28.1963
0.7120	27.9741
0.7110	28.1154
0.7100	27.9735
0.7090	27.7301
0.7080	27.7502
0.7070	27.7086
0.7060	27.6885
0.7050	27.5466
0.7040	27.3453
0.7030	27.2467
0.7020	26.9652
0.7010	26.9458
0.7000	27.4844
0.6990	27.7070
0.6980	27.2569
0.6970	27.0748
0.6960	26.8948
0.6950	26.9391
0.6940	26.8550
0.6930	26.6326
0.6920	26.7167
0.6910	26.5933
0.6900	26.5933
0.6890	26.7114
0.6880	26.5286
0.6870	26.4699
0.6860	26.3271
0.6850	26.0228
0.6840	25.8339
0.6830	25.9188
0.6820	25.9188
0.6810	25.6535
0.6800	25.3510
0.6790	25.5969
0.6780	25.9023
0.6770	25.7117
0.6760	25.4921
0.6750	25.5301
0.6740	25.4351
0.6730	25.2174
0.6720	24.9708
0.6710	25.3319
0.6700	25.4937
0.6690	25.5321
0.6680	25.6091
0.6670	25.1957
0.6660	25.4083
0.6650	25.1606
0.6640	24.8941
0.6630	24.9237
0.6620	24.8267
0.6610	24.8455
0.6600	24.2165
0.6590	24.3068
0.6580	24.3749
0.6570	24.4362
0.6560	24.1837
0.6550	24.3997
0.6540	24.5666
0.6530	24.4733
0.6520	24.3621
0.6510	24.2385
0.6500	23.9004
0.6490	23.5643
0.6480	23.4575
0.6470	23.5643
0.6460	23.5666
0.6450	23.4611
0.6440	23.4432
0.6430	23.3912
0.6420	23.3912
0.6410	23.3733
0.6400	23.3554
0.6390	22.9497
0.6380	23.1264
0.6370	23.0555
0.6360	23.0139
0.6350	22.8078
0.6340	22.7015
0.6330	22.7015
0.6320	22.7716
0.6310	22.5406
0.6300	22.3990
0.6290	22.4511
0.6280	22.4290
0.6270	22.0819
0.6260	21.9796
0.6250	22.0860
0.6240	22.3768
0.6230	22.3222
0.6220	22.0991
0.6210	21.7159
0.6200	21.5709
0.6190	21.4706
0.6180	21.7229
0.6170	21.5463
0.6160	21.5463
0.6150	21.4724
0.6140	21.5969
0.6130	21.4556
0.6120	21.6477
0.6110	21.6477
0.6100	21.5061
0.6090	21.4892
0.6080	21.2067
0.6070	21.2875
0.6060	21.2468
0.6050	21.1553
0.6040	20.8306
0.6030	20.7380
0.6020	20.8209
0.6010	20.6844
0.6000	20.3864
0.5990	20.8866
0.5980	20.6652
0.5970	20.4077
0.5960	20.3129
0.5950	20.3339
0.5940	20.1029
0.5930	20.2964
0.5920	20.1849
0.5910	19.8009
0.5900	19.9812
0.5890	19.7864
0.5880	19.7052
0.5870	19.7701
0.5860	19.7864
0.5850	19.8559
0.5840	19.6891
0.5830	19.2740
0.5820	19.4172
0.5810	19.5925
0.5800	19.5771
0.5790	19.3088
0.5780	19.0688
0.5770	19.0384
0.5760	18.8179
0.5750	18.7583
0.5740	18.6663
0.5730	18.4690
0.5720	18.6905
0.5710	18.5634
0.5700	18.6846
0.5690	18.4989
0.5680	18.4690
0.5670	18.3297
0.5660	18.1905
0.5650	18.0516
0.5640	18.1169
0.5630	18.1465
0.5620	17.9574
0.5610	17.7805
0.5600	17.6847
0.5590	17.7722
0.5580	17.2637
0.5570	17.1370
0.5560	16.7395
0.5550	16.4362
0.5540	16.6027
0.5530	16.3130
0.5520	16.5341
0.5510	16.3686
0.5500	16.3262
0.5490	16.2835
0.5480	16.0788
0.5470	15.9136
0.5460	15.8739
0.5450	15.6314
0.5440	15.9936
0.5430	15.4216
0.5420	15.3485
0.5410	15.5087
0.5400	15.4234
0.5390	15.2518
0.5380	15.2387
0.5370	15.3436
0.5360	15.0012
0.5350	15.0789
0.5340	14.8531
0.5330	14.4623
0.5320	14.0407
0.5310	14.3500
0.5300	14.3873
0.5290	14.2875
0.5280	14.2875
0.5270	14.3248
0.5260	13.8755
0.5250	13.5479
0.5240	13.5597
0.5230	13.8981
0.5220	13.5051
0.5210	13.4028
0.5200	13.5940
0.5190	13.1722
0.5180	13.2895
0.5170	12.7626
0.5160	12.7966
0.5150	13.1926
0.5140	12.7278
0.5130	12.5910
0.5120	12.5327
0.5110	12.4990
0.5100	12.5664
0.5090	12.1767
0.5080	12.0998
0.5070	11.9525
0.5060	11.8594
0.5050	11.8486
0.5040	11.7445
0.5030	11.7230
0.5020	11.5141
0.5010	11.3244
0.5000	11.2832
0.4990	11.2301
0.4980	11.1260
0.4970	10.9797
0.4960	10.8620
0.4950	10.8519
0.4940	10.6799
0.4930	10.6399
0.4920	10.3060
0.4910	10.4447
0.4900	10.1993
0.4890	10.3874
0.4880	10.3198
0.4870	10.3100
0.4860	9.7605
0.4850	9.6860
0.4840	9.5969
0.4830	9.6154
0.4820	9.6525
0.4810	9.4449
0.4800	9.4082
0.4790	9.1277
0.4780	9.0368
0.4770	9.1816
0.4760	9.1726
0.4750	9.0822
0.4740	8.9283
0.4730	9.0468
0.4720	8.9195
0.4710	8.9195
0.4700	8.3739
0.4690	8.3411
0.4680	8.3575
0.4670	8.1107
0.4660	7.9275
0.4650	8.3411
0.4640	8.1430
0.4630	7.8440
0.4620	7.8128
0.4610	7.8051
0.4600	7.9717
0.4590	7.7498
0.4580	7.7798
0.4570	7.9901
0.4560	7.8780
0.4550	7.4531
0.4540	7.7302
0.4530	7.2901
0.4520	7.4531
0.4510	7.1695
0.4500	7.1626
0.4490	7.1012
0.4480	6.8321
0.4470	7.0280
0.4460	6.8452
0.4450	6.7241
0.4440	6.7371
0.4430	6.6286
0.4420	6.4338
0.4410	6.4959
0.4400	6.4772
0.4390	6.3613
0.4380	5.9806
0.4370	5.9923
0.4360	5.8403
0.4350	5.8117
0.4340	5.4983
0.4330	5.5142
0.4320	5.4063
0.4310	5.2145
0.4300	5.0907
0.4290	4.9389
0.4280	4.7814
0.4270	4.7082
0.4260	4.5922
0.4250	4.3980
0.4240	4.5652
0.4230	4.2939
0.4220	4.0191
0.4210	4.0308
0.4200	4.0191
0.4190	3.8735
0.4180	3.5357
0.4170	3.5154
0.4160	3.3382
0.4150	3.3477
0.4140	3.3446
0.4130	3.0828
0.4120	3.0738
0.4110	2.9156
0.4100	2.9156
0.4090	2.7809
0.4080	2.6216
0.4070	2.4995
0.4060	2.6291
0.4050	2.4995
0.4040	2.3907
0.4030	2.3907
0.4020	1.7950
0.4010	1.6676
0.4000	1.4979
