Name:  Dark yellowish brown micaceous loam
Type:  Soils
Class:  Inceptisol
Subclass:  Dystrochrept
Particle Size:  see additional information
Sample No.:  88P2535
Owner:  JHU
Wavelength range:  All
Origin: Howard Co., Md. via USDA Soil Conservation service.

Description:  The parent material is schist and phyllite.  Dark 
yellowish brown micaceous loam (coarse-loamy, micaceous, mesic typic), 
from piedmonts.



Measurement:  Directional (10 degree) hemispherical reflectance
First Column:  X
Second Column:  Y
X Units:  Wavelength (micrometers)
Y Units:  Reflectance (percent)
First X Value:  14.0112
Last X Value:  0.4000
Number of X Values:  2844
Additional information:  88P2535a.txt

14.0112	1.6401
13.9734	1.6606
13.9359	1.6929
13.8985	1.7112
13.8614	1.7312
13.8244	1.7722
13.7876	1.8201
13.7511	1.8376
13.7147	1.8447
13.6785	1.8662
13.6425	1.8831
13.6067	1.8752
13.5711	1.8701
13.5356	1.8706
13.5004	1.8562
13.4653	1.8425
13.4304	1.8442
13.3957	1.8567
13.3612	1.8538
13.3269	1.8457
13.2927	1.8603
13.2587	1.8599
13.2249	1.8433
13.1912	1.8469
13.1577	1.8789
13.1244	1.9111
13.0913	1.9319
13.0583	1.9582
13.0255	1.9929
12.9929	2.0181
12.9604	2.0637
12.9281	2.1472
12.8959	2.2402
12.8639	2.3076
12.8321	2.3391
12.8004	2.3240
12.7688	2.2627
12.7375	2.1692
12.7063	2.0867
12.6752	2.0435
12.6443	2.0334
12.6135	2.0579
12.5829	2.1006
12.5524	2.1394
12.5221	2.1594
12.4919	2.1379
12.4619	2.0759
12.4320	1.9687
12.4023	1.8462
12.3727	1.7327
12.3432	1.6477
12.3139	1.6057
12.2847	1.6211
12.2557	1.6802
12.2268	1.7617
12.1980	1.8474
12.1694	1.9338
12.1409	2.0002
12.1125	2.0447
12.0843	2.0803
12.0562	2.1289
12.0282	2.1819
12.0003	2.2419
11.9726	2.3098
11.9450	2.3718
11.9176	2.4204
11.8903	2.4670
11.8631	2.5242
11.8360	2.5906
11.8090	2.6623
11.7822	2.7427
11.7555	2.8210
11.7289	2.8862
11.7024	2.9355
11.6760	2.9585
11.6498	2.9629
11.6237	2.9700
11.5977	2.9961
11.5718	3.0295
11.5460	3.0598
11.5203	3.0810
11.4948	3.0896
11.4694	3.0813
11.4440	3.0627
11.4188	3.0613
11.3937	3.0669
11.3688	3.0740
11.3439	3.0872
11.3191	3.0945
11.2944	3.0998
11.2699	3.1179
11.2455	3.1413
11.2211	3.1672
11.1969	3.1797
11.1727	3.1736
11.1487	3.1606
11.1248	3.1409
11.1010	3.1235
11.0773	3.1155
11.0536	3.1111
11.0301	3.1064
11.0067	3.0869
10.9834	3.0525
10.9602	3.0171
10.9370	2.9822
10.9140	2.9419
10.8911	2.9016
10.8682	2.8745
10.8455	2.8616
10.8229	2.8491
10.8003	2.8318
10.7779	2.8184
10.7555	2.8186
10.7332	2.8281
10.7111	2.8520
10.6890	2.8928
10.6670	2.9299
10.6451	2.9497
10.6233	2.9553
10.6015	2.9560
10.5799	2.9836
10.5584	3.0366
10.5369	3.1072
10.5155	3.1885
10.4942	3.2693
10.4730	3.3430
10.4519	3.4075
10.4309	3.4604
10.4099	3.5229
10.3891	3.5847
10.3683	3.6433
10.3476	3.7019
10.3270	3.7602
10.3065	3.8091
10.2860	3.8594
10.2657	3.9116
10.2454	3.9614
10.2252	4.0117
10.2050	4.0705
10.1850	4.1301
10.1650	4.1902
10.1451	4.2353
10.1253	4.2854
10.1056	4.3367
10.0859	4.3982
10.0663	4.4817
10.0468	4.5867
10.0274	4.7080
10.0080	4.8393
9.9887	4.9668
9.9695	5.0945
9.9504	5.2082
9.9313	5.2993
9.9123	5.3608
9.8934	5.4001
9.8746	5.4119
9.8558	5.3972
9.8371	5.3777
9.8185	5.3830
9.7999	5.4236
9.7814	5.5029
9.7630	5.6316
9.7447	5.8130
9.7264	6.0320
9.7082	6.2641
9.6900	6.4873
9.6719	6.6938
9.6539	6.8662
9.6360	6.9953
9.6181	7.0835
9.6003	7.1406
9.5825	7.1814
9.5649	7.2002
9.5472	7.1943
9.5297	7.1721
9.5122	7.1401
9.4948	7.1118
9.4774	7.0981
9.4601	7.1184
9.4429	7.1848
9.4257	7.2920
9.4086	7.4336
9.3916	7.6067
9.3746	7.7825
9.3577	7.9367
9.3408	8.0591
9.3240	8.1470
9.3073	8.2004
9.2906	8.2141
9.2740	8.1860
9.2574	8.1238
9.2409	8.0478
9.2245	7.9599
9.2081	7.8594
9.1918	7.7522
9.1755	7.6321
9.1593	7.5051
9.1431	7.3594
9.1270	7.1858
9.1110	7.0073
9.0950	6.8247
9.0791	6.6250
9.0632	6.4031
9.0474	6.1721
9.0316	5.9636
9.0159	5.7981
9.0003	5.7065
8.9847	5.7038
8.9691	5.7761
8.9536	5.8918
8.9382	6.0315
8.9228	6.1645
8.9075	6.2619
8.8922	6.3364
8.8770	6.4043
8.8618	6.4414
8.8467	6.4275
8.8316	6.3703
8.8166	6.3098
8.8016	6.2424
8.7867	6.1460
8.7718	6.0371
8.7570	5.9299
8.7422	5.8149
8.7275	5.6853
8.7129	5.5405
8.6982	5.3909
8.6837	5.1973
8.6692	4.9307
8.6547	4.6421
8.6403	4.4297
8.6259	4.3459
8.6116	4.4055
8.5973	4.5918
8.5830	4.8503
8.5688	5.0806
8.5547	5.2280
8.5406	5.2944
8.5266	5.3269
8.5126	5.3454
8.4986	5.3569
8.4847	5.3650
8.4708	5.3794
8.4570	5.3950
8.4432	5.4167
8.4295	5.4377
8.4158	5.4668
8.4022	5.5080
8.3886	5.5517
8.3750	5.5915
8.3615	5.6396
8.3481	5.7043
8.3347	5.7766
8.3213	5.8428
8.3079	5.9121
8.2946	5.9963
8.2814	6.0947
8.2682	6.1907
8.2550	6.2756
8.2419	6.3452
8.2288	6.3882
8.2158	6.3918
8.2028	6.3769
8.1898	6.3401
8.1769	6.2585
8.1640	6.1255
8.1512	5.9560
8.1384	5.7500
8.1256	5.5232
8.1129	5.3005
8.1002	5.0947
8.0876	4.8970
8.0750	4.6990
8.0624	4.5083
8.0499	4.3291
8.0374	4.1558
8.0250	3.9944
8.0126	3.8484
8.0002	3.7017
7.9879	3.5569
7.9756	3.4224
7.9634	3.2966
7.9512	3.1789
7.9390	3.0720
7.9268	2.9768
7.9147	2.8818
7.9027	2.7847
7.8906	2.6990
7.8786	2.6345
7.8667	2.5776
7.8548	2.5176
7.8429	2.4575
7.8310	2.4089
7.8192	2.3738
7.8075	2.3518
7.7957	2.3467
7.7840	2.3498
7.7723	2.3472
7.7607	2.3445
7.7491	2.3430
7.7375	2.3332
7.7260	2.3259
7.7145	2.3227
7.7031	2.3110
7.6916	2.2900
7.6802	2.2703
7.6689	2.2683
7.6575	2.2681
7.6462	2.2568
7.6350	2.2510
7.6238	2.2517
7.6126	2.2427
7.6014	2.2280
7.5903	2.2109
7.5792	2.2024
7.5681	2.1977
7.5571	2.1995
7.5461	2.2163
7.5351	2.2302
7.5242	2.2256
7.5133	2.2224
7.5024	2.2207
7.4916	2.2234
7.4807	2.2307
7.4700	2.2439
7.4592	2.2649
7.4485	2.2749
7.4378	2.2644
7.4272	2.2600
7.4165	2.2676
7.4059	2.2815
7.3954	2.2922
7.3848	2.2986
7.3743	2.3054
7.3639	2.3074
7.3534	2.2991
7.3430	2.2952
7.3326	2.2983
7.3222	2.3037
7.3119	2.3088
7.3016	2.3162
7.2914	2.3259
7.2811	2.3437
7.2709	2.3689
7.2607	2.3916
7.2506	2.4119
7.2404	2.4287
7.2303	2.4346
7.2203	2.4363
7.2102	2.4409
7.2002	2.4514
7.1902	2.4634
7.1803	2.4768
7.1703	2.5017
7.1604	2.5288
7.1506	2.5425
7.1407	2.5588
7.1309	2.5791
7.1211	2.6013
7.1113	2.6155
7.1016	2.6306
7.0919	2.6499
7.0822	2.6614
7.0725	2.6636
7.0629	2.6648
7.0533	2.6619
7.0437	2.6667
7.0341	2.6731
7.0246	2.6855
7.0151	2.7136
7.0056	2.7419
6.9962	2.7703
6.9867	2.8042
6.9773	2.8408
6.9679	2.8833
6.9586	2.9224
6.9493	2.9607
6.9400	3.0010
6.9307	3.0300
6.9214	3.0544
6.9122	3.0796
6.9030	3.1106
6.8938	3.1355
6.8847	3.1472
6.8755	3.1643
6.8664	3.1868
6.8573	3.2170
6.8483	3.2600
6.8393	3.3022
6.8302	3.3459
6.8213	3.3789
6.8123	3.3987
6.8034	3.4267
6.7944	3.4626
6.7855	3.5078
6.7767	3.5583
6.7678	3.6047
6.7590	3.6418
6.7502	3.6716
6.7414	3.6816
6.7327	3.6831
6.7239	3.6897
6.7152	3.7009
6.7065	3.7073
6.6979	3.7148
6.6892	3.7219
6.6806	3.7317
6.6720	3.7344
6.6634	3.7234
6.6549	3.7124
6.6464	3.7126
6.6378	3.7126
6.6294	3.7078
6.6209	3.6933
6.6124	3.6831
6.6040	3.6711
6.5956	3.6406
6.5872	3.6099
6.5789	3.5974
6.5705	3.5918
6.5622	3.5871
6.5539	3.5928
6.5456	3.6116
6.5374	3.6330
6.5292	3.6538
6.5209	3.6680
6.5128	3.6631
6.5046	3.6550
6.4964	3.6628
6.4883	3.6868
6.4802	3.7161
6.4721	3.7595
6.4640	3.8100
6.4560	3.8396
6.4480	3.8481
6.4399	3.8364
6.4320	3.8074
6.4240	3.7737
6.4160	3.7441
6.4081	3.7290
6.4002	3.7217
6.3923	3.7178
6.3844	3.7229
6.3766	3.7117
6.3687	3.6777
6.3609	3.6392
6.3531	3.5981
6.3454	3.5586
6.3376	3.5295
6.3299	3.5029
6.3221	3.4717
6.3144	3.4343
6.3068	3.3828
6.2991	3.3230
6.2914	3.2651
6.2838	3.2192
6.2762	3.1902
6.2686	3.1577
6.2611	3.1199
6.2535	3.0820
6.2460	3.0398
6.2385	2.9863
6.2310	2.9346
6.2235	2.9021
6.2160	2.8760
6.2086	2.8428
6.2011	2.8093
6.1937	2.7827
6.1863	2.7541
6.1790	2.7200
6.1716	2.6990
6.1643	2.6826
6.1570	2.6543
6.1496	2.6274
6.1424	2.6145
6.1351	2.6057
6.1278	2.5991
6.1206	2.6011
6.1134	2.6160
6.1062	2.6233
6.0990	2.6240
6.0918	2.6299
6.0847	2.6409
6.0776	2.6426
6.0704	2.6370
6.0633	2.6357
6.0563	2.6492
6.0492	2.6709
6.0421	2.6975
6.0351	2.7261
6.0281	2.7607
6.0211	2.7964
6.0141	2.8279
6.0071	2.8603
6.0002	2.8957
5.9932	2.9289
5.9863	2.9622
5.9794	3.0005
5.9725	3.0403
5.9657	3.0879
5.9588	3.1370
5.9520	3.1843
5.9451	3.2339
5.9383	3.2817
5.9315	3.3411
5.9247	3.4187
5.9180	3.4951
5.9112	3.5793
5.9045	3.6628
5.8978	3.7397
5.8911	3.8220
5.8844	3.9126
5.8777	4.0271
5.8711	4.1504
5.8644	4.2690
5.8578	4.3974
5.8512	4.5190
5.8446	4.6081
5.8380	4.6777
5.8314	4.7527
5.8249	4.8423
5.8184	4.9358
5.8118	5.0344
5.8053	5.1470
5.7988	5.2615
5.7923	5.3557
5.7859	5.4258
5.7794	5.4985
5.7730	5.5793
5.7666	5.6579
5.7602	5.7329
5.7538	5.8147
5.7474	5.9106
5.7410	6.0100
5.7347	6.0989
5.7283	6.1772
5.7220	6.2502
5.7157	6.3154
5.7094	6.3681
5.7031	6.4143
5.6969	6.4614
5.6906	6.5093
5.6844	6.5447
5.6782	6.5515
5.6719	6.5476
5.6657	6.5364
5.6596	6.4939
5.6534	6.4370
5.6472	6.3879
5.6411	6.3533
5.6349	6.3257
5.6288	6.3093
5.6227	6.3149
5.6166	6.3276
5.6106	6.3281
5.6045	6.3266
5.5984	6.3191
5.5924	6.3093
5.5864	6.3074
5.5804	6.3208
5.5744	6.3401
5.5684	6.3630
5.5624	6.3896
5.5564	6.4184
5.5505	6.4431
5.5445	6.4729
5.5386	6.5173
5.5327	6.5603
5.5268	6.5972
5.5209	6.6372
5.5151	6.6750
5.5092	6.7063
5.5033	6.7353
5.4975	6.7693
5.4917	6.8056
5.4859	6.8401
5.4801	6.8833
5.4743	6.9492
5.4685	7.0244
5.4628	7.0962
5.4570	7.1640
5.4513	7.2202
5.4455	7.2597
5.4398	7.2739
5.4341	7.2676
5.4284	7.2507
5.4228	7.2190
5.4171	7.1697
5.4114	7.1120
5.4058	7.0442
5.4002	6.9587
5.3945	6.8545
5.3889	6.7488
5.3833	6.6499
5.3778	6.5613
5.3722	6.4924
5.3666	6.4397
5.3611	6.3984
5.3555	6.3689
5.3500	6.3640
5.3445	6.3816
5.3390	6.4153
5.3335	6.4707
5.3280	6.5405
5.3225	6.6040
5.3171	6.6575
5.3116	6.7129
5.3062	6.7724
5.3008	6.8291
5.2954	6.8899
5.2900	6.9656
5.2846	7.0544
5.2792	7.1528
5.2738	7.2539
5.2684	7.3618
5.2631	7.4812
5.2578	7.6091
5.2524	7.7400
5.2471	7.8774
5.2418	8.0315
5.2365	8.1997
5.2312	8.3520
5.2260	8.4868
5.2207	8.6196
5.2154	8.7368
5.2102	8.8249
5.2050	8.8899
5.1998	8.9529
5.1945	9.0180
5.1893	9.0578
5.1842	9.0840
5.1790	9.1186
5.1738	9.1455
5.1686	9.1618
5.1635	9.1762
5.1584	9.1960
5.1532	9.2275
5.1481	9.2566
5.1430	9.2895
5.1379	9.3266
5.1328	9.3586
5.1277	9.4016
5.1227	9.4536
5.1176	9.4990
5.1126	9.5432
5.1075	9.5852
5.1025	9.6247
5.0975	9.6494
5.0925	9.6511
5.0875	9.6438
5.0825	9.6421
5.0775	9.6333
5.0726	9.6250
5.0676	9.6394
5.0627	9.6726
5.0577	9.7129
5.0528	9.7485
5.0479	9.7871
5.0430	9.8337
5.0380	9.8696
5.0332	9.8911
5.0283	9.9096
5.0234	9.9277
5.0185	9.9455
5.0137	9.9677
5.0088	9.9995
5.0040	10.0434
4.9992	10.0957
4.9944	10.1589
4.9896	10.2436
4.9848	10.3423
4.9800	10.4521
4.9752	10.5825
4.9704	10.7280
4.9657	10.8823
4.9609	11.0322
4.9562	11.1753
4.9514	11.3076
4.9467	11.4104
4.9420	11.4887
4.9373	11.5608
4.9326	11.6328
4.9279	11.7170
4.9232	11.8244
4.9186	11.9682
4.9139	12.1545
4.9092	12.3674
4.9046	12.5935
4.9000	12.8288
4.8953	13.0683
4.8907	13.2976
4.8861	13.5090
4.8815	13.7116
4.8769	13.9028
4.8723	14.0720
4.8678	14.2170
4.8632	14.3454
4.8586	14.4675
4.8541	14.5815
4.8495	14.6911
4.8450	14.7968
4.8405	14.8967
4.8360	14.9980
4.8315	15.0908
4.8270	15.1718
4.8225	15.2534
4.8180	15.3335
4.8135	15.4077
4.8090	15.4809
4.8046	15.5542
4.8001	15.6316
4.7957	15.7060
4.7913	15.7744
4.7868	15.8400
4.7824	15.9043
4.7780	15.9707
4.7736	16.0429
4.7692	16.1081
4.7648	16.1628
4.7605	16.2180
4.7561	16.2766
4.7517	16.3293
4.7474	16.3772
4.7431	16.4253
4.7387	16.4724
4.7344	16.5092
4.7301	16.5341
4.7258	16.5590
4.7215	16.5961
4.7172	16.6337
4.7129	16.6508
4.7086	16.6511
4.7043	16.6469
4.7000	16.6267
4.6958	16.5900
4.6915	16.5581
4.6873	16.5463
4.6831	16.5610
4.6788	16.5986
4.6746	16.6638
4.6704	16.7553
4.6662	16.8562
4.6620	16.9604
4.6578	17.0705
4.6536	17.1767
4.6495	17.2844
4.6453	17.3945
4.6411	17.5046
4.6370	17.6120
4.6328	17.7116
4.6287	17.8066
4.6246	17.8960
4.6205	17.9785
4.6163	18.0647
4.6122	18.1408
4.6081	18.2063
4.6040	18.2719
4.6000	18.3317
4.5959	18.3864
4.5918	18.4348
4.5877	18.4887
4.5837	18.5517
4.5796	18.6025
4.5756	18.6450
4.5716	18.6940
4.5675	18.7343
4.5635	18.7653
4.5595	18.7883
4.5555	18.8078
4.5515	18.8212
4.5475	18.8210
4.5435	18.8117
4.5395	18.8032
4.5356	18.7893
4.5316	18.7648
4.5276	18.7275
4.5237	18.6835
4.5197	18.6352
4.5158	18.5688
4.5119	18.4946
4.5080	18.4218
4.5040	18.3532
4.5001	18.2978
4.4962	18.2634
4.4923	18.2500
4.4884	18.2463
4.4846	18.2434
4.4807	18.2399
4.4768	18.2348
4.4730	18.2375
4.4691	18.2622
4.4652	18.2980
4.4614	18.3454
4.4576	18.4094
4.4537	18.4799
4.4499	18.5505
4.4461	18.6220
4.4423	18.6975
4.4385	18.7736
4.4347	18.8310
4.4309	18.8779
4.4271	18.9257
4.4233	18.9760
4.4196	19.0336
4.4158	19.0937
4.4120	19.1560
4.4083	19.2233
4.4045	19.2836
4.4008	19.3374
4.3971	19.3898
4.3934	19.4536
4.3896	19.5312
4.3859	19.6105
4.3822	19.6904
4.3785	19.7756
4.3748	19.8535
4.3711	19.9133
4.3674	19.9606
4.3638	20.0017
4.3601	20.0436
4.3564	20.0881
4.3528	20.1367
4.3491	20.1826
4.3455	20.2189
4.3418	20.2480
4.3382	20.2788
4.3346	20.3002
4.3310	20.3190
4.3273	20.3444
4.3237	20.3723
4.3201	20.3901
4.3165	20.4025
4.3129	20.4055
4.3094	20.3981
4.3058	20.3737
4.3022	20.3439
4.2986	20.3203
4.2951	20.3117
4.2915	20.3139
4.2880	20.3073
4.2844	20.2941
4.2809	20.2812
4.2774	20.2707
4.2738	20.2758
4.2703	20.3059
4.2668	20.3681
4.2633	20.4506
4.2598	20.5114
4.2563	20.5502
4.2528	20.5566
4.2493	20.5378
4.2458	20.5078
4.2424	20.4873
4.2389	20.4873
4.2354	20.5036
4.2320	20.5214
4.2285	20.5397
4.2251	20.5666
4.2216	20.6003
4.2182	20.6193
4.2148	20.6301
4.2113	20.6491
4.2079	20.6708
4.2045	20.6833
4.2011	20.6906
4.1977	20.7106
4.1943	20.7258
4.1909	20.7231
4.1875	20.7192
4.1841	20.7285
4.1808	20.7421
4.1774	20.7524
4.1740	20.7697
4.1707	20.7871
4.1673	20.8012
4.1640	20.8078
4.1606	20.8017
4.1573	20.7949
4.1540	20.7866
4.1506	20.7871
4.1473	20.8017
4.1440	20.8110
4.1407	20.8188
4.1374	20.8183
4.1341	20.8073
4.1308	20.8105
4.1275	20.8195
4.1242	20.8164
4.1209	20.8029
4.1177	20.7949
4.1144	20.7954
4.1111	20.7951
4.1079	20.7985
4.1046	20.8100
4.1014	20.8203
4.0981	20.8195
4.0949	20.8120
4.0917	20.8132
4.0884	20.8144
4.0852	20.8012
4.0820	20.7858
4.0788	20.7663
4.0756	20.7507
4.0724	20.7499
4.0692	20.7497
4.0660	20.7521
4.0628	20.7592
4.0596	20.7568
4.0565	20.7453
4.0533	20.7255
4.0501	20.7031
4.0470	20.6826
4.0438	20.6594
4.0406	20.6396
4.0375	20.6264
4.0344	20.6115
4.0312	20.5959
4.0281	20.5834
4.0250	20.5688
4.0218	20.5590
4.0187	20.5400
4.0156	20.5168
4.0125	20.4973
4.0094	20.4777
4.0063	20.4567
4.0032	20.4379
4.0001	20.4186
3.9970	20.4011
3.9940	20.3771
3.9909	20.3610
3.9878	20.3442
3.9847	20.3266
3.9817	20.3049
3.9786	20.2832
3.9756	20.2661
3.9725	20.2543
3.9695	20.2478
3.9665	20.2446
3.9634	20.2431
3.9604	20.2404
3.9574	20.2348
3.9544	20.2192
3.9513	20.1936
3.9483	20.1657
3.9453	20.1271
3.9423	20.0849
3.9393	20.0559
3.9363	20.0339
3.9333	20.0178
3.9304	19.9968
3.9274	19.9802
3.9244	19.9628
3.9214	19.9335
3.9185	19.9040
3.9155	19.8779
3.9126	19.8488
3.9096	19.8129
3.9067	19.7873
3.9037	19.7705
3.9008	19.7470
3.8979	19.7126
3.8949	19.6787
3.8920	19.6484
3.8891	19.6032
3.8862	19.5532
3.8833	19.5200
3.8804	19.4865
3.8775	19.4519
3.8746	19.4152
3.8717	19.3759
3.8688	19.3320
3.8659	19.2817
3.8630	19.2263
3.8601	19.1572
3.8573	19.0898
3.8544	19.0483
3.8515	19.0266
3.8487	19.0097
3.8458	18.9938
3.8430	18.9719
3.8401	18.9321
3.8373	18.8635
3.8344	18.7968
3.8316	18.7543
3.8288	18.7255
3.8259	18.6948
3.8231	18.6582
3.8203	18.6118
3.8175	18.5554
3.8147	18.5024
3.8119	18.4484
3.8091	18.3903
3.8063	18.3320
3.8035	18.2761
3.8007	18.2272
3.7979	18.1811
3.7951	18.1306
3.7924	18.0803
3.7896	18.0268
3.7868	17.9638
3.7841	17.9060
3.7813	17.8515
3.7785	17.7939
3.7758	17.7448
3.7730	17.6960
3.7703	17.6386
3.7676	17.5837
3.7648	17.5244
3.7621	17.4697
3.7594	17.4101
3.7566	17.3422
3.7539	17.2746
3.7512	17.2124
3.7485	17.1513
3.7458	17.0839
3.7431	17.0092
3.7404	16.9379
3.7377	16.8828
3.7350	16.8313
3.7323	16.7751
3.7296	16.7299
3.7269	16.6862
3.7242	16.6320
3.7216	16.5732
3.7189	16.5051
3.7162	16.4360
3.7136	16.3784
3.7109	16.3288
3.7083	16.2824
3.7056	16.2307
3.7030	16.1735
3.7003	16.1066
3.6977	16.0207
3.6950	15.9355
3.6924	15.8833
3.6898	15.8557
3.6872	15.8271
3.6845	15.7985
3.6819	15.7773
3.6793	15.7419
3.6767	15.6897
3.6741	15.6374
3.6715	15.5776
3.6689	15.5068
3.6663	15.4228
3.6637	15.3400
3.6611	15.2785
3.6585	15.2260
3.6560	15.1772
3.6534	15.1421
3.6508	15.1042
3.6482	15.0605
3.6457	15.0075
3.6431	14.9492
3.6406	14.9011
3.6380	14.8530
3.6355	14.7961
3.6329	14.7351
3.6304	14.6762
3.6278	14.6245
3.6253	14.5681
3.6227	14.5095
3.6202	14.4526
3.6177	14.3960
3.6152	14.3335
3.6127	14.2712
3.6101	14.2199
3.6076	14.1750
3.6051	14.1201
3.6026	14.0610
3.6001	14.0000
3.5976	13.9338
3.5951	13.8650
3.5926	13.7949
3.5901	13.7258
3.5876	13.6643
3.5852	13.6086
3.5827	13.5637
3.5802	13.5161
3.5777	13.4589
3.5753	13.3991
3.5728	13.3359
3.5704	13.2810
3.5679	13.2314
3.5654	13.1787
3.5630	13.1225
3.5605	13.0549
3.5581	12.9780
3.5557	12.9057
3.5532	12.8442
3.5508	12.7971
3.5484	12.7514
3.5459	12.7026
3.5435	12.6489
3.5411	12.5832
3.5387	12.4995
3.5363	12.4082
3.5338	12.3100
3.5314	12.2221
3.5290	12.1552
3.5266	12.0898
3.5242	12.0163
3.5218	11.9384
3.5195	11.8476
3.5171	11.7404
3.5147	11.6259
3.5123	11.5212
3.5099	11.4248
3.5075	11.3261
3.5052	11.2480
3.5028	11.1911
3.5004	11.1408
3.4981	11.1018
3.4957	11.0771
3.4934	11.0539
3.4910	11.0173
3.4887	10.9809
3.4863	10.9543
3.4840	10.9209
3.4816	10.8740
3.4793	10.8261
3.4770	10.7800
3.4746	10.7295
3.4723	10.6706
3.4700	10.6167
3.4677	10.5715
3.4653	10.5385
3.4630	10.5093
3.4607	10.4724
3.4584	10.4333
3.4561	10.3818
3.4538	10.3098
3.4515	10.2199
3.4492	10.1316
3.4469	10.0542
3.4446	9.9861
3.4423	9.9172
3.4400	9.8567
3.4378	9.8066
3.4355	9.7641
3.4332	9.7116
3.4309	9.6418
3.4287	9.5571
3.4264	9.4592
3.4241	9.3608
3.4219	9.2693
3.4196	9.1931
3.4174	9.1426
3.4151	9.1020
3.4129	9.0681
3.4106	9.0451
3.4084	9.0329
3.4061	9.0322
3.4039	9.0324
3.4017	9.0198
3.3994	9.0046
3.3972	8.9934
3.3950	8.9836
3.3928	8.9753
3.3906	8.9707
3.3883	8.9477
3.3861	8.9082
3.3839	8.8684
3.3817	8.8352
3.3795	8.8076
3.3773	8.7737
3.3751	8.7402
3.3729	8.7143
3.3707	8.6902
3.3685	8.6762
3.3663	8.6736
3.3641	8.6689
3.3620	8.6504
3.3598	8.6213
3.3576	8.5888
3.3554	8.5581
3.3533	8.5383
3.3511	8.5232
3.3489	8.5007
3.3468	8.4709
3.3446	8.4409
3.3425	8.4155
3.3403	8.3906
3.3382	8.3674
3.3360	8.3379
3.3339	8.2986
3.3317	8.2519
3.3296	8.2004
3.3274	8.1526
3.3253	8.1128
3.3232	8.0866
3.3210	8.0679
3.3189	8.0278
3.3168	7.9804
3.3147	7.9421
3.3126	7.9089
3.3104	7.8645
3.3083	7.8135
3.3062	7.7707
3.3041	7.7302
3.3020	7.6782
3.2999	7.6267
3.2978	7.5859
3.2957	7.5537
3.2936	7.5137
3.2915	7.4656
3.2894	7.4238
3.2874	7.3918
3.2853	7.3581
3.2832	7.3181
3.2811	7.2700
3.2790	7.2224
3.2770	7.1711
3.2749	7.1186
3.2728	7.0742
3.2708	7.0351
3.2687	6.9958
3.2666	6.9592
3.2646	6.9201
3.2625	6.8896
3.2605	6.8572
3.2584	6.8176
3.2564	6.7839
3.2543	6.7539
3.2523	6.7251
3.2503	6.6889
3.2482	6.6477
3.2462	6.6167
3.2442	6.5788
3.2421	6.5307
3.2401	6.4875
3.2381	6.4570
3.2361	6.4289
3.2340	6.4016
3.2320	6.3782
3.2300	6.3520
3.2280	6.3266
3.2260	6.3103
3.2240	6.2817
3.2220	6.2471
3.2200	6.2034
3.2180	6.1628
3.2160	6.1181
3.2140	6.0720
3.2120	6.0444
3.2100	6.0317
3.2080	6.0149
3.2060	5.9966
3.2040	5.9746
3.2021	5.9573
3.2001	5.9365
3.1981	5.9204
3.1961	5.8994
3.1942	5.8735
3.1922	5.8425
3.1902	5.8083
3.1883	5.7795
3.1863	5.7702
3.1844	5.7568
3.1824	5.7351
3.1805	5.7056
3.1785	5.6650
3.1766	5.6211
3.1746	5.5954
3.1727	5.5779
3.1707	5.5666
3.1688	5.5471
3.1669	5.5254
3.1649	5.5044
3.1630	5.4780
3.1611	5.4575
3.1591	5.4556
3.1572	5.4451
3.1553	5.4248
3.1534	5.4111
3.1515	5.3909
3.1495	5.3472
3.1476	5.3081
3.1457	5.2829
3.1438	5.2637
3.1419	5.2517
3.1400	5.2419
3.1381	5.2324
3.1362	5.2119
3.1343	5.1831
3.1324	5.1711
3.1305	5.1726
3.1286	5.1706
3.1268	5.1675
3.1249	5.1531
3.1230	5.1211
3.1211	5.0957
3.1192	5.0903
3.1174	5.0818
3.1155	5.0705
3.1136	5.0637
3.1117	5.0559
3.1099	5.0393
3.1080	5.0173
3.1061	5.0051
3.1043	4.9995
3.1024	4.9795
3.1006	4.9634
3.0987	4.9602
3.0969	4.9617
3.0950	4.9551
3.0932	4.9431
3.0913	4.9353
3.0895	4.9133
3.0876	4.8826
3.0858	4.8696
3.0840	4.8826
3.0821	4.9045
3.0803	4.9197
3.0785	4.9255
3.0766	4.9275
3.0748	4.9143
3.0730	4.8943
3.0712	4.8843
3.0694	4.8882
3.0675	4.8891
3.0657	4.8767
3.0639	4.8674
3.0621	4.8677
3.0603	4.8547
3.0585	4.8454
3.0567	4.8445
3.0549	4.8476
3.0531	4.8511
3.0513	4.8525
3.0495	4.8579
3.0477	4.8655
3.0459	4.8533
3.0441	4.8476
3.0423	4.8386
3.0406	4.8328
3.0388	4.8369
3.0370	4.8450
3.0352	4.8425
3.0334	4.8262
3.0317	4.8008
3.0299	4.7720
3.0281	4.7429
3.0264	4.7414
3.0246	4.7541
3.0228	4.7646
3.0211	4.7786
3.0193	4.7869
3.0176	4.7839
3.0158	4.7663
3.0140	4.7600
3.0123	4.7781
3.0105	4.8015
3.0088	4.8279
3.0070	4.8428
3.0053	4.8186
3.0036	4.7695
3.0018	4.7244
3.0001	4.6936
2.9984	4.6782
2.9966	4.6890
2.9949	4.7112
2.9932	4.7131
2.9914	4.6965
2.9897	4.6904
2.9880	4.7090
2.9863	4.7124
2.9845	4.6948
2.9828	4.6833
2.9811	4.6706
2.9794	4.6531
2.9777	4.6374
2.9760	4.6221
2.9743	4.6138
2.9726	4.5991
2.9709	4.5918
2.9692	4.6013
2.9675	4.5962
2.9658	4.5676
2.9641	4.5488
2.9624	4.5447
2.9607	4.5430
2.9590	4.5498
2.9573	4.5613
2.9556	4.5742
2.9539	4.5683
2.9523	4.5452
2.9506	4.5361
2.9489	4.5388
2.9472	4.5430
2.9455	4.5513
2.9439	4.5571
2.9422	4.5867
2.9405	4.6186
2.9389	4.6301
2.9372	4.6130
2.9355	4.5723
2.9339	4.5337
2.9322	4.4953
2.9306	4.4809
2.9289	4.5019
2.9272	4.5261
2.9256	4.5430
2.9239	4.5635
2.9223	4.5837
2.9207	4.5935
2.9190	4.5818
2.9174	4.5701
2.9157	4.5393
2.9141	4.4861
2.9124	4.4451
2.9108	4.4363
2.9092	4.4541
2.9075	4.4639
2.9059	4.4634
2.9043	4.4614
2.9027	4.4485
2.9010	4.4228
2.8994	4.4006
2.8978	4.3887
2.8962	4.3867
2.8946	4.3852
2.8929	4.3984
2.8913	4.4353
2.8897	4.4756
2.8881	4.5139
2.8865	4.5522
2.8849	4.5679
2.8833	4.5503
2.8817	4.5183
2.8801	4.4988
2.8785	4.4975
2.8769	4.5110
2.8753	4.5474
2.8737	4.5925
2.8721	4.6225
2.8705	4.6272
2.8689	4.6223
2.8673	4.6357
2.8658	4.6518
2.8642	4.6807
2.8626	4.7161
2.8610	4.7373
2.8594	4.7388
2.8579	4.7190
2.8563	4.6953
2.8547	4.6816
2.8531	4.6750
2.8516	4.6843
2.8500	4.6958
2.8484	4.6909
2.8469	4.6692
2.8453	4.6421
2.8437	4.6238
2.8422	4.6169
2.8406	4.6055
2.8391	4.5791
2.8375	4.5505
2.8360	4.5393
2.8344	4.5456
2.8329	4.5522
2.8313	4.5796
2.8298	4.6147
2.8282	4.6238
2.8267	4.6113
2.8252	4.6084
2.8236	4.6094
2.8221	4.5871
2.8205	4.5508
2.8190	4.5351
2.8175	4.5400
2.8159	4.5618
2.8144	4.5810
2.8129	4.6059
2.8114	4.6047
2.8098	4.5676
2.8083	4.5369
2.8068	4.5054
2.8053	4.4739
2.8038	4.4700
2.8022	4.4714
2.8007	4.4726
2.7992	4.4499
2.7977	4.4182
2.7962	4.4089
2.7947	4.3857
2.7932	4.3425
2.7917	4.3171
2.7902	4.3015
2.7887	4.2712
2.7872	4.2014
2.7857	4.1138
2.7842	4.0400
2.7827	3.9487
2.7812	3.8301
2.7797	3.7270
2.7782	3.6667
2.7767	3.6323
2.7752	3.5996
2.7738	3.5674
2.7723	3.5310
2.7708	3.4512
2.7693	3.3247
2.7678	3.1699
2.7664	2.9888
2.7649	2.7878
2.7634	2.6013
2.7619	2.4690
2.7605	2.3845
2.7590	2.3533
2.7575	2.3867
2.7561	2.4687
2.7546	2.5686
2.7531	2.6689
2.7517	2.7649
2.7502	2.8511
2.7488	2.8960
2.7473	2.9170
2.7458	2.9468
2.7444	2.9734
2.7429	2.9783
2.7415	2.9817
2.7400	2.9978
2.7386	3.0163
2.7371	3.0212
2.7357	3.0315
2.7343	3.0647
2.7328	3.0918
2.7314	3.1184
2.7299	3.1741
2.7285	3.2356
2.7271	3.3052
2.7256	3.3799
2.7242	3.4717
2.7228	3.5798
2.7213	3.7082
2.7199	3.8545
2.7185	3.9834
2.7171	4.0613
2.7156	4.1042
2.7142	4.0998
2.7128	4.0635
2.7114	3.9968
2.7100	3.9026
2.7085	3.7871
2.7071	3.6782
2.7057	3.5976
2.7043	3.5803
2.7029	3.6604
2.7015	3.8511
2.7001	4.1540
2.6987	4.5488
2.6973	5.0261
2.6959	5.5925
2.6945	6.2407
2.6931	6.9924
2.6917	7.8359
2.6903	8.7341
2.6889	9.6675
2.6875	10.5952
2.6861	11.4968
2.6847	12.3684
2.6833	13.1826
2.6819	13.9472
2.6805	14.6540
2.6791	15.3164
2.6778	15.9336
2.6764	16.5441
2.6750	17.1210
2.6736	17.6272
2.6722	18.0832
2.6709	18.4909
2.6695	18.8437
2.6681	19.1877
2.6667	19.5800
2.6654	20.0390
2.6640	20.4973
2.6626	20.9416
2.6613	21.4067
2.6599	21.7983
2.6585	22.1115
2.6572	22.3715
2.6558	22.6125
2.6545	22.8588
2.6531	23.0942
2.6517	23.3312
2.6504	23.5930
2.6490	23.8212
2.6477	24.0407
2.6463	24.2433
2.6450	24.4286
2.6436	24.6264
2.6423	24.8024
2.6409	24.9753
2.6396	25.1772
2.6382	25.3593
2.6369	25.5431
2.6356	25.7097
2.6342	25.7829
2.6329	25.8347
2.6315	25.9164
2.6302	26.0136
2.6289	26.1464
2.6275	26.2983
2.6262	26.4992
2.6249	26.6606
2.6236	26.7192
2.6222	26.7956
2.6209	26.8652
2.6196	26.9054
2.6183	26.9826
2.6169	27.0954
2.6156	27.2399
2.6143	27.3642
2.6130	27.4667
2.6117	27.5822
2.6103	27.6467
2.6090	27.6581
2.6077	27.6733
2.6064	27.6987
2.6051	27.7372
2.6038	27.8134
2.6025	27.9491
2.6012	28.1357
2.5999	28.2870
2.5986	28.2736
2.5973	28.1872
2.5960	28.1506
2.5947	28.1547
2.5934	28.2111
2.5921	28.3251
2.5908	28.4726
2.5895	28.6178
2.5882	28.6628
2.5869	28.6642
2.5856	28.7226
2.5843	28.7997
2.5830	28.9008
2.5817	29.0021
2.5805	29.0759
2.5792	29.1545
2.5779	29.2165
2.5766	29.2153
2.5753	29.2111
2.5741	29.2223
2.5728	29.2548
2.5715	29.2978
2.5702	29.3537
2.5690	29.4428
2.5677	29.5190
2.5664	29.5468
2.5651	29.5741
2.5639	29.6117
2.5626	29.6425
2.5613	29.7089
2.5601	29.8412
2.5588	29.9938
2.5575	30.0942
2.5563	30.1362
2.5550	30.1476
2.5538	30.1513
2.5525	30.1532
2.5513	30.1877
2.5500	30.2448
2.5487	30.3073
2.5475	30.3634
2.5462	30.3976
2.5450	30.4262
2.5437	30.4662
2.5425	30.5002
2.5413	30.5282
2.5400	30.5629
2.5388	30.6081
2.5375	30.6432
2.5363	30.6711
2.5350	30.6989
2.5338	30.7267
2.5326	30.7409
2.5313	30.7677
2.5301	30.8434
2.5289	30.9340
2.5276	31.0026
2.5264	31.0580
2.5252	31.0922
2.5239	31.0927
2.5227	31.0881
2.5215	31.1027
2.5202	31.1230
2.5190	31.1259
2.5178	31.1296
2.5166	31.1449
2.5154	31.1723
2.5141	31.2277
2.5129	31.2956
2.5117	31.3415
2.5105	31.3715
2.5093	31.3822
2.5081	31.3925
2.5068	31.4198
2.5056	31.4716
2.5044	31.5339
2.5032	31.5761
2.5020	31.5861
2.5008	31.5922
2.4996	31.5937
2.4984	31.5998
2.4972	31.6198
2.4960	31.6657
2.4948	31.7082
2.4936	31.7497
2.4924	31.7834
2.4912	31.7756
2.4900	31.7590
2.4888	31.7619
2.4876	31.7878
2.4864	31.8549
2.4852	31.9235
2.4840	31.9721
2.4828	32.0212
2.4816	32.0763
2.4805	32.1291
2.4793	32.1896
2.4781	32.2763
2.4769	32.3818
2.4757	32.4672
2.4745	32.5011
2.4734	32.5270
2.4722	32.5900
2.4710	32.6335
2.4698	32.6498
2.4686	32.6613
2.4675	32.6838
2.4663	32.7143
2.4651	32.7277
2.4640	32.7389
2.4628	32.7712
2.4616	32.8012
2.4604	32.8312
2.4593	32.8671
2.4581	32.9128
2.4569	32.9569
2.4558	33.0024
2.4546	33.0402
2.4535	33.0807
2.4523	33.1144
2.4511	33.1256
2.4500	33.1335
2.4488	33.1513
2.4477	33.1747
2.4465	33.2111
2.4454	33.2543
2.4442	33.3156
2.4431	33.3561
2.4419	33.3583
2.4408	33.3610
2.4396	33.3822
2.4385	33.4338
2.4373	33.5263
2.4362	33.6308
2.4350	33.7348
2.4339	33.8300
2.4327	33.9211
2.4316	34.0058
2.4305	34.0878
2.4293	34.1784
2.4282	34.2841
2.4270	34.3705
2.4259	34.4455
2.4248	34.5319
2.4236	34.6310
2.4225	34.7311
2.4214	34.7980
2.4202	34.8456
2.4191	34.9071
2.4180	34.9535
2.4169	35.0028
2.4157	35.0583
2.4146	35.1293
2.4135	35.1930
2.4124	35.2438
2.4112	35.3212
2.4101	35.4149
2.4090	35.4643
2.4079	35.4860
2.4068	35.4940
2.4056	35.5150
2.4045	35.5309
2.4034	35.5544
2.4023	35.5780
2.4012	35.6103
2.4001	35.6349
2.3990	35.6442
2.3979	35.6403
2.3967	35.6339
2.3956	35.5851
2.3945	35.5190
2.3934	35.4579
2.3923	35.4267
2.3912	35.4435
2.3901	35.4943
2.3890	35.5421
2.3879	35.5629
2.3868	35.5324
2.3857	35.5065
2.3846	35.4862
2.3835	35.4538
2.3824	35.4748
2.3813	35.5482
2.3802	35.6322
2.3791	35.7235
2.3781	35.8244
2.3770	35.9403
2.3759	36.0441
2.3748	36.1230
2.3737	36.2045
2.3726	36.2626
2.3715	36.3078
2.3704	36.3527
2.3694	36.4025
2.3683	36.4516
2.3672	36.4767
2.3661	36.5050
2.3650	36.5551
2.3640	36.5951
2.3629	36.6173
2.3618	36.6100
2.3607	36.5917
2.3597	36.5780
2.3586	36.5583
2.3575	36.5688
2.3564	36.6090
2.3554	36.6479
2.3543	36.6581
2.3532	36.6557
2.3522	36.6652
2.3511	36.6842
2.3500	36.7270
2.3490	36.8007
2.3479	36.8607
2.3468	36.9186
2.3458	36.9801
2.3447	37.0407
2.3436	37.1015
2.3426	37.1747
2.3415	37.2787
2.3405	37.3773
2.3394	37.4279
2.3384	37.4721
2.3373	37.5241
2.3363	37.5600
2.3352	37.5817
2.3342	37.6234
2.3331	37.7033
2.3321	37.7699
2.3310	37.7868
2.3300	37.8009
2.3289	37.8288
2.3279	37.8603
2.3268	37.8786
2.3258	37.9152
2.3247	38.0153
2.3237	38.1374
2.3226	38.2226
2.3216	38.2736
2.3206	38.2870
2.3195	38.3280
2.3185	38.3644
2.3175	38.3971
2.3164	38.4655
2.3154	38.5373
2.3144	38.5856
2.3133	38.6227
2.3123	38.6532
2.3113	38.7575
2.3102	38.8698
2.3092	38.9445
2.3082	39.0280
2.3071	39.1073
2.3061	39.1615
2.3051	39.2145
2.3041	39.2438
2.3030	39.2875
2.3020	39.3515
2.3010	39.3930
2.3000	39.4499
2.2990	39.5321
2.2979	39.5956
2.2969	39.6422
2.2959	39.6762
2.2949	39.7633
2.2939	39.8712
2.2929	39.9445
2.2918	40.0119
2.2908	40.0963
2.2898	40.1698
2.2888	40.2138
2.2878	40.2602
2.2868	40.3197
2.2858	40.3449
2.2848	40.3644
2.2838	40.4039
2.2828	40.4740
2.2818	40.5573
2.2808	40.6317
2.2798	40.6967
2.2787	40.7387
2.2777	40.7746
2.2767	40.8161
2.2757	40.8383
2.2747	40.8673
2.2738	40.8810
2.2728	40.8742
2.2718	40.8988
2.2708	40.9747
2.2698	41.0871
2.2688	41.1840
2.2678	41.2287
2.2668	41.2418
2.2658	41.2453
2.2648	41.2533
2.2638	41.3043
2.2628	41.3656
2.2618	41.4069
2.2609	41.4144
2.2599	41.4130
2.2589	41.4203
2.2579	41.4628
2.2569	41.5226
2.2559	41.5553
2.2550	41.5458
2.2540	41.4975
2.2530	41.4591
2.2520	41.4494
2.2510	41.4660
2.2501	41.4884
2.2491	41.5065
2.2481	41.5087
2.2471	41.4862
2.2462	41.4559
2.2452	41.4606
2.2442	41.4396
2.2433	41.4052
2.2423	41.3871
2.2413	41.3986
2.2403	41.4254
2.2394	41.4469
2.2384	41.4769
2.2374	41.5226
2.2365	41.5326
2.2355	41.5187
2.2345	41.5255
2.2336	41.5663
2.2326	41.6112
2.2317	41.6303
2.2307	41.6298
2.2297	41.6188
2.2288	41.5961
2.2278	41.5382
2.2269	41.4701
2.2259	41.4320
2.2250	41.3810
2.2240	41.2875
2.2231	41.1791
2.2221	41.0465
2.2211	40.8280
2.2202	40.5675
2.2192	40.2936
2.2183	40.0004
2.2173	39.6857
2.2164	39.3681
2.2155	39.0324
2.2145	38.6254
2.2136	38.0800
2.2126	37.4657
2.2117	36.8124
2.2107	36.1615
2.2098	35.6413
2.2088	35.3415
2.2079	35.2541
2.2070	35.3693
2.2060	35.6483
2.2051	36.0094
2.2041	36.3830
2.2032	36.7272
2.2023	37.0329
2.2013	37.2797
2.2004	37.4438
2.1995	37.5819
2.1985	37.7240
2.1976	37.8178
2.1967	37.8529
2.1957	37.8847
2.1948	37.9494
2.1939	38.0746
2.1930	38.2377
2.1920	38.4484
2.1911	38.7074
2.1902	38.9367
2.1893	39.1100
2.1883	39.2365
2.1874	39.3686
2.1865	39.5270
2.1856	39.6413
2.1846	39.7753
2.1837	39.9762
2.1828	40.1288
2.1819	40.2487
2.1810	40.3578
2.1800	40.4704
2.1791	40.5668
2.1782	40.6139
2.1773	40.7001
2.1764	40.8046
2.1755	40.8478
2.1746	40.9069
2.1736	40.9862
2.1727	41.0460
2.1718	41.0934
2.1709	41.1330
2.1700	41.1593
2.1691	41.1408
2.1682	41.1247
2.1673	41.1449
2.1664	41.1852
2.1655	41.2533
2.1646	41.3368
2.1637	41.4313
2.1628	41.5377
2.1619	41.6120
2.1610	41.7038
2.1601	41.7843
2.1592	41.8622
2.1583	41.9569
2.1574	42.0582
2.1565	42.2037
2.1556	42.3454
2.1547	42.4601
2.1538	42.6002
2.1529	42.7460
2.1520	42.9264
2.1511	43.1178
2.1502	43.3063
2.1493	43.4943
2.1484	43.6369
2.1475	43.7592
2.1466	43.8864
2.1458	44.0145
2.1449	44.1510
2.1440	44.2980
2.1431	44.4244
2.1422	44.4972
2.1413	44.5458
2.1404	44.6276
2.1396	44.7362
2.1387	44.8375
2.1378	44.9301
2.1369	45.0375
2.1360	45.0946
2.1352	45.0773
2.1343	45.0299
2.1334	45.0538
2.1325	45.1254
2.1316	45.1879
2.1308	45.2211
2.1299	45.2216
2.1290	45.2318
2.1281	45.2645
2.1273	45.2843
2.1264	45.3185
2.1255	45.3597
2.1247	45.3512
2.1238	45.2987
2.1229	45.2699
2.1220	45.3080
2.1212	45.3546
2.1203	45.3656
2.1194	45.3851
2.1186	45.4266
2.1177	45.4335
2.1168	45.4135
2.1160	45.4471
2.1151	45.5189
2.1143	45.5326
2.1134	45.4935
2.1125	45.4745
2.1117	45.4730
2.1108	45.4481
2.1100	45.4493
2.1091	45.5221
2.1082	45.6278
2.1074	45.6808
2.1065	45.7138
2.1057	45.7587
2.1048	45.8038
2.1040	45.8436
2.1031	45.8739
2.1023	45.8951
2.1014	45.9012
2.1005	45.8949
2.0997	45.9042
2.0988	45.9362
2.0980	45.9401
2.0971	45.9054
2.0963	45.8607
2.0955	45.8651
2.0946	45.8798
2.0938	45.8571
2.0929	45.8573
2.0921	45.9354
2.0912	46.0241
2.0904	46.1036
2.0895	46.2006
2.0887	46.2760
2.0879	46.2601
2.0870	46.2120
2.0862	46.1884
2.0853	46.1954
2.0845	46.1823
2.0837	46.1517
2.0828	46.1505
2.0820	46.0062
2.0812	46.1981
2.0803	46.5038
2.0795	46.6417
2.0760	46.8025
2.0720	46.7519
2.0680	47.3620
2.0640	47.1625
2.0600	46.9939
2.0560	46.7912
2.0520	46.7634
2.0480	46.8354
2.0440	47.1322
2.0400	46.7835
2.0360	46.8317
2.0320	46.4596
2.0280	46.7282
2.0240	46.6241
2.0200	46.7731
2.0160	46.6650
2.0120	46.5640
2.0080	46.5318
2.0040	46.3733
2.0000	45.8141
1.9960	46.0734
1.9920	45.9961
1.9880	45.0051
1.9840	44.9911
1.9800	44.5835
1.9760	44.1906
1.9720	43.8274
1.9680	44.0058
1.9640	43.8001
1.9600	43.1600
1.9560	42.4405
1.9520	42.1997
1.9480	41.9583
1.9440	41.7969
1.9400	41.5766
1.9360	41.3634
1.9320	41.1110
1.9280	40.6390
1.9240	40.3520
1.9200	39.8700
1.9160	40.0690
1.9120	40.0412
1.9080	40.1688
1.9040	40.5964
1.9000	41.0881
1.8960	42.2729
1.8920	43.1154
1.8880	44.4337
1.8840	45.5063
1.8800	46.7542
1.8760	47.4075
1.8720	47.9937
1.8680	48.7385
1.8640	49.0793
1.8600	49.4614
1.8560	49.7652
1.8520	50.2593
1.8480	50.6880
1.8440	50.5080
1.8400	50.6808
1.8360	50.9546
1.8320	50.7858
1.8280	50.8461
1.8240	50.7493
1.8200	50.7954
1.8160	50.1469
1.8120	50.3558
1.8080	50.4355
1.8040	50.6690
1.8000	51.2252
1.7960	51.6672
1.7920	51.2894
1.7880	50.9523
1.7840	51.1487
1.7800	50.8148
1.7760	50.7065
1.7720	50.7065
1.7680	51.0816
1.7640	51.0318
1.7600	51.1957
1.7560	51.2232
1.7520	51.1361
1.7480	51.1536
1.7440	51.0686
1.7400	51.1771
1.7360	51.3721
1.7320	51.1088
1.7280	51.4711
1.7240	51.1724
1.7200	51.0859
1.7160	51.2540
1.7120	51.1410
1.7080	51.1095
1.7040	51.2796
1.7000	51.2847
1.6960	50.8837
1.6920	50.6259
1.6880	50.6796
1.6840	50.4180
1.6800	50.6610
1.6760	50.5789
1.6720	50.2930
1.6680	50.2690
1.6640	50.0046
1.6600	50.1087
1.6560	50.3226
1.6520	50.4033
1.6480	50.4572
1.6440	50.4272
1.6400	50.5350
1.6360	50.5080
1.6320	50.5382
1.6280	50.7518
1.6240	50.8336
1.6200	50.6955
1.6160	50.8297
1.6120	50.7518
1.6080	50.6229
1.6040	50.5288
1.6000	50.5991
1.5960	50.5513
1.5920	50.4968
1.5880	50.4425
1.5840	50.5150
1.5800	50.0426
1.5760	49.9600
1.5720	49.8303
1.5680	49.5951
1.5640	49.6499
1.5600	49.8358
1.5560	49.8877
1.5520	49.9069
1.5480	49.6429
1.5440	49.8090
1.5400	49.9435
1.5360	49.6975
1.5320	49.5919
1.5280	49.3061
1.5240	49.5711
1.5200	49.7018
1.5160	49.4332
1.5120	49.2552
1.5080	49.0172
1.5040	48.8585
1.5000	48.4772
1.4960	48.0819
1.4920	47.8888
1.4880	47.9526
1.4840	47.8675
1.4800	47.5772
1.4760	47.4484
1.4720	47.5349
1.4680	47.4452
1.4640	47.4420
1.4600	47.3134
1.4560	46.7574
1.4520	46.6163
1.4480	46.7644
1.4440	46.6959
1.4400	46.6170
1.4360	46.5351
1.4320	46.2100
1.4280	46.0837
1.4240	45.9765
1.4200	46.0347
1.4160	45.4831
1.4120	44.4722
1.4080	43.2012
1.4040	43.0522
1.4000	42.9683
1.3960	43.1984
1.3920	43.6349
1.3880	44.2505
1.3840	44.5568
1.3800	45.1191
1.3760	45.9352
1.3720	46.5214
1.3680	46.6425
1.3640	47.1862
1.3600	47.5236
1.3560	47.7094
1.3520	47.6106
1.3480	47.7458
1.3440	47.8034
1.3400	47.8482
1.3360	48.0019
1.3320	47.8917
1.3280	47.6944
1.3240	47.5950
1.3200	47.5429
1.3160	47.3756
1.3120	47.4015
1.3080	47.4791
1.3040	47.6471
1.3000	47.6993
1.2960	48.0530
1.2920	47.8800
1.2880	47.8770
1.2840	47.7585
1.2800	47.6687
1.2760	47.3348
1.2720	47.2467
1.2680	46.9565
1.2640	46.8404
1.2600	46.5605
1.2560	46.3648
1.2520	46.4094
1.2480	46.4235
1.2440	46.5019
1.2400	46.4693
1.2360	46.2992
1.2320	46.0694
1.2280	45.9913
1.2240	45.9319
1.2200	45.7428
1.2160	45.7844
1.2120	45.5984
1.2080	46.0078
1.2040	45.9484
1.2000	45.9741
1.1960	45.7007
1.1920	45.4758
1.1880	45.7687
1.1840	45.2640
1.1800	45.2251
1.1760	44.9178
1.1720	44.6724
1.1680	44.4771
1.1640	44.4656
1.1600	44.3683
1.1560	44.3319
1.1520	44.0729
1.1480	43.7500
1.1440	43.2502
1.1400	43.3097
1.1360	43.0851
1.1320	42.9472
1.1280	43.2701
1.1240	42.8193
1.1200	42.4407
1.1160	42.3369
1.1120	42.1054
1.1080	41.7043
1.1040	41.6922
1.1000	41.5088
1.0960	41.3962
1.0920	41.2180
1.0880	41.3826
1.0840	41.1417
1.0800	41.2695
1.0760	40.7973
1.0720	40.4319
1.0680	40.0774
1.0640	40.3943
1.0600	40.3732
1.0560	40.0110
1.0520	40.1848
1.0480	39.7849
1.0440	39.5584
1.0400	39.6717
1.0360	39.9155
1.0320	39.5807
1.0280	39.4670
1.0240	39.0568
1.0200	39.0792
1.0160	38.7179
1.0120	38.9673
1.0080	38.9408
1.0040	38.8043
1.0000	38.4808
0.9960	38.7063
0.9920	38.6368
0.9880	37.7713
0.9840	37.9121
0.9800	38.0835
0.9760	38.1056
0.9720	38.1891
0.9680	37.7127
0.9640	37.8400
0.9600	37.5266
0.9560	37.4334
0.9520	37.2619
0.9480	37.2799
0.9440	36.8937
0.9400	36.9586
0.9360	36.9620
0.9320	36.9837
0.9280	37.0556
0.9240	36.5090
0.9200	36.8035
0.9160	36.7022
0.9120	36.5866
0.9080	36.4925
0.9040	36.4198
0.9000	36.5704
0.8960	36.6136
0.8920	36.7054
0.8880	36.6249
0.8840	36.8465
0.8800	36.8244
0.8760	36.8622
0.8720	36.9225
0.8680	36.9225
0.8640	37.1457
0.8600	36.9832
0.8560	37.2362
0.8520	37.0894
0.8480	37.3500
0.8440	37.3449
0.8400	37.1743
0.8360	37.4644
0.8320	37.3860
0.8280	37.2943
0.8240	37.3449
0.8200	37.5100
0.8160	37.5103
0.8120	37.7259
0.8080	37.5147
0.8040	37.5904
0.8000	37.4004
0.7990	37.9986
0.7980	37.9970
0.7970	37.8610
0.7960	37.9100
0.7950	37.7415
0.7940	37.4082
0.7930	37.7170
0.7920	37.5506
0.7910	37.7364
0.7900	37.8063
0.7890	37.8839
0.7880	37.7609
0.7870	37.8385
0.7860	38.1025
0.7850	37.7609
0.7840	37.7400
0.7830	37.8385
0.7820	37.4985
0.7810	37.4055
0.7800	37.6710
0.7790	37.5229
0.7780	37.4065
0.7770	37.3334
0.7760	37.5229
0.7750	37.5515
0.7740	37.2882
0.7730	37.2640
0.7720	37.3577
0.7710	37.2385
0.7700	37.2385
0.7690	37.0213
0.7680	36.9760
0.7670	36.9060
0.7660	36.9301
0.7650	37.1453
0.7640	37.1210
0.7630	37.0242
0.7620	36.7137
0.7610	36.7856
0.7600	36.9060
0.7590	36.8596
0.7580	36.5231
0.7570	36.4992
0.7560	36.3787
0.7550	36.3787
0.7540	36.4513
0.7530	36.4511
0.7520	36.0908
0.7510	36.1878
0.7500	36.2832
0.7490	36.2824
0.7480	36.2110
0.7470	35.8274
0.7460	35.8510
0.7450	36.2351
0.7440	35.6839
0.7430	35.5405
0.7420	35.8025
0.7410	35.6796
0.7400	35.7033
0.7390	35.5354
0.7380	35.5354
0.7370	35.5354
0.7360	35.3689
0.7350	35.2486
0.7340	35.1484
0.7330	35.2190
0.7320	35.0005
0.7310	34.7166
0.7300	34.3663
0.7290	34.3947
0.7280	34.8224
0.7270	34.8171
0.7260	34.6919
0.7250	34.5198
0.7240	34.5165
0.7230	34.1597
0.7220	34.2514
0.7210	34.1076
0.7200	34.4184
0.7190	34.1241
0.7180	34.0096
0.7170	33.6016
0.7160	33.8204
0.7150	33.9342
0.7140	33.7602
0.7130	33.5936
0.7120	33.3737
0.7110	33.4102
0.7100	33.3876
0.7090	33.1443
0.7080	33.1667
0.7070	33.1348
0.7060	32.8684
0.7050	32.8461
0.7040	32.8786
0.7030	32.6464
0.7020	32.6023
0.7010	32.3382
0.7000	32.5468
0.6990	32.5355
0.6980	32.1684
0.6970	32.0916
0.6960	31.8916
0.6950	31.8034
0.6940	31.7235
0.6930	31.6140
0.6920	31.4470
0.6910	31.3236
0.6900	31.4470
0.6890	31.4539
0.6880	31.3886
0.6870	31.3236
0.6860	31.3020
0.6850	31.1141
0.6840	30.6854
0.6830	30.6430
0.6820	30.6430
0.6810	30.4988
0.6800	30.4356
0.6790	30.4633
0.6780	30.5269
0.6770	30.3423
0.6760	30.2367
0.6750	30.2788
0.6740	30.0499
0.6730	29.9456
0.6720	29.9456
0.6710	30.3133
0.6700	29.9848
0.6690	30.0270
0.6680	30.1116
0.6670	29.8243
0.6660	30.0270
0.6650	29.7793
0.6640	29.7583
0.6630	29.6540
0.6620	29.6973
0.6610	29.4701
0.6600	28.9570
0.6590	28.9137
0.6580	28.8528
0.6570	28.9329
0.6560	28.6862
0.6550	28.7873
0.6540	28.8278
0.6530	28.4776
0.6520	28.4805
0.6510	28.4805
0.6500	28.5034
0.6490	28.1576
0.6480	27.9167
0.6470	28.0347
0.6460	28.1735
0.6450	28.1934
0.6440	28.0501
0.6430	27.8822
0.6420	27.8822
0.6410	28.1097
0.6400	27.7192
0.6390	27.6800
0.6380	27.7530
0.6370	27.3027
0.6360	27.1306
0.6350	27.0550
0.6340	27.0743
0.6330	27.0743
0.6320	27.1518
0.6310	27.0469
0.6300	26.9033
0.6290	27.0857
0.6280	27.1818
0.6270	26.8265
0.6260	26.2181
0.6250	26.0761
0.6240	26.5035
0.6230	26.5799
0.6220	26.3498
0.6210	26.0761
0.6200	25.9257
0.6190	25.8145
0.6180	26.0939
0.6170	26.0526
0.6160	26.0526
0.6150	25.8599
0.6140	25.8599
0.6130	25.5924
0.6120	25.4170
0.6110	25.4170
0.6100	25.1492
0.6090	25.1310
0.6080	24.9702
0.6070	24.9307
0.6060	24.8969
0.6050	24.9334
0.6040	24.7418
0.6030	24.6523
0.6020	24.3646
0.6010	24.3642
0.6000	24.4546
0.5990	24.4533
0.5980	24.2346
0.5970	24.3633
0.5960	24.1438
0.5950	24.0500
0.5940	23.7985
0.5930	23.7420
0.5920	23.6318
0.5910	23.6318
0.5900	23.5575
0.5890	23.2424
0.5880	23.1548
0.5870	23.2248
0.5860	23.1139
0.5850	23.0572
0.5840	22.6250
0.5830	22.4548
0.5820	22.2170
0.5810	22.2675
0.5800	22.2577
0.5790	21.9870
0.5780	21.8758
0.5770	21.5822
0.5760	20.8481
0.5750	20.6604
0.5740	20.4413
0.5730	20.3659
0.5720	20.3366
0.5710	20.4590
0.5700	20.3332
0.5690	19.8980
0.5680	19.4948
0.5670	19.2313
0.5660	19.0925
0.5650	18.9538
0.5640	18.6487
0.5630	18.5544
0.5620	18.4871
0.5610	18.1816
0.5600	17.8348
0.5590	17.6669
0.5580	17.6710
0.5570	17.5496
0.5560	17.3997
0.5550	16.8501
0.5540	16.7710
0.5530	16.3575
0.5520	16.2059
0.5510	16.1579
0.5500	15.9853
0.5490	15.8114
0.5480	15.3467
0.5470	14.9352
0.5460	14.8999
0.5450	14.5463
0.5440	14.7778
0.5430	14.3319
0.5420	14.0032
0.5410	14.1667
0.5400	13.9515
0.5390	13.7692
0.5380	13.5075
0.5370	13.5968
0.5360	13.3934
0.5350	13.0826
0.5340	12.9785
0.5330	12.6100
0.5320	11.9576
0.5310	12.1426
0.5300	11.9240
0.5290	11.6947
0.5280	11.6947
0.5270	11.5996
0.5260	11.1528
0.5250	11.0654
0.5240	11.0748
0.5230	11.0320
0.5220	10.6284
0.5210	10.3949
0.5200	10.4602
0.5190	10.0637
0.5180	10.1977
0.5170	9.7874
0.5160	9.5628
0.5150	9.9386
0.5140	9.3541
0.5130	9.0947
0.5120	9.1440
0.5110	8.9936
0.5100	8.7901
0.5090	8.5298
0.5080	8.4749
0.5070	8.3338
0.5060	8.2313
0.5050	7.9725
0.5040	7.9875
0.5030	7.8469
0.5020	7.7507
0.5010	7.4450
0.5000	7.3873
0.4990	7.4376
0.4980	7.2400
0.4970	7.1002
0.4960	6.8434
0.4950	6.8367
0.4940	6.7641
0.4930	6.4849
0.4920	6.1683
0.4910	6.3139
0.4900	6.0547
0.4890	6.2324
0.4880	6.1440
0.4870	5.8844
0.4860	5.5916
0.4850	5.5449
0.4840	5.4420
0.4830	5.3271
0.4820	5.3499
0.4810	5.3785
0.4800	5.2288
0.4790	5.2119
0.4780	4.9807
0.4770	5.2458
0.4760	4.9862
0.4750	4.8676
0.4740	4.8516
0.4730	4.7190
0.4720	4.7190
0.4710	4.7190
0.4700	4.4145
0.4690	4.2679
0.4680	4.2774
0.4670	4.2821
0.4660	4.3759
0.4650	4.2679
0.4640	4.3012
0.4630	4.1332
0.4620	4.1150
0.4610	4.1104
0.4600	4.1332
0.4590	3.9768
0.4580	3.8673
0.4570	3.9135
0.4560	3.9219
0.4550	3.7553
0.4540	3.6397
0.4530	3.7353
0.4520	3.7553
0.4510	3.4523
0.4500	3.5765
0.4490	3.5433
0.4480	3.3922
0.4470	3.4450
0.4460	3.1441
0.4450	3.1474
0.4440	3.0263
0.4430	3.0361
0.4420	2.8571
0.4410	2.8875
0.4400	2.6221
0.4390	2.4996
0.4380	2.3531
0.4370	2.3583
0.4360	2.3479
0.4350	2.2066
0.4340	1.8836
0.4330	1.8899
0.4320	1.7692
0.4310	1.5934
0.4300	1.4664
0.4290	1.3050
0.4280	0.8826
0.4270	1.0550
0.4260	0.9292
0.4250	0.7545
0.4240	0.7924
0.4230	0.6309
0.4220	0.4668
0.4210	0.3384
0.4200	0.3365
0.4190	0.3339
0.4180	-0.0039
0.4170	-0.0052
0.4160	-0.1729
0.4150	-0.1728
0.4140	-0.1728
0.4130	-0.4315
0.4120	-0.1729
0.4110	-0.5986
0.4100	-0.5986
0.4090	-0.5979
0.4080	-0.7664
0.4070	-0.7681
0.4060	-0.8978
0.4050	-0.8978
0.4040	-0.9040
0.4030	-0.9040
0.4020	-1.2475
0.4010	-1.2499
0.4000	-1.4224
